dataReceived,timestamp,ppg,status
1710812003626,1710811991585,2097152,0
1710812003626,1710811991626,2366943,0
1710812003626,1710811991667,2366919,0
1710812003626,1710811991706,2367025,0
1710812003626,1710811991746,2367144,0
1710812003626,1710811991786,2367329,0
1710812003626,1710811991826,2367412,0
1710812003626,1710811991867,2367468,0
1710812003626,1710811991906,2367537,0
1710812003626,1710811991947,2367604,0
1710812003626,1710811991987,2229473,0
1710812003626,1710811992027,2229674,0
1710812003626,1710811992068,2229889,0
1710812003626,1710811992107,2230067,0
1710812003626,1710811992147,2230431,0
1710812003626,1710811992187,2112151,0
1710812003626,1710811992228,2112497,0
1710812003626,1710811992269,2112649,0
1710812003626,1710811992308,2112562,0
1710812003626,1710811992348,2112661,0
1710812003626,1710811992388,2137084,0
1710812003626,1710811992428,2138048,0
1710812003626,1710811992469,2138946,0
1710812003626,1710811992508,2139973,0
1710812003626,1710811992548,2140484,0
1710812003626,1710811992589,2140991,0
1710812003626,1710811992629,2141409,0
1710812003626,1710811992670,2142164,0
1710812003626,1710811992709,2142959,0
1710812003626,1710811992752,2143698,0
1710812003626,1710811992789,2144649,0
1710812003626,1710811992829,2145310,0
1710812003626,1710811992871,2146140,0
1710812003626,1710811992910,2146815,0
1710812003626,1710811992950,2147332,0
1710812003626,1710811992990,2147230,0
1710812003626,1710811993030,2146675,0
1710812003626,1710811993071,2146660,0
1710812003626,1710811993110,2146524,0
1710812003626,1710811993150,2146394,0
1710812003626,1710811993191,2145936,0
1710812003626,1710811993231,2145358,0
1710812003626,1710811993272,2143519,0
1710812003626,1710811993311,2141349,0
1710812003626,1710811993351,2138607,0
1710812003626,1710811993391,2136002,0
1710812003626,1710811993431,2133134,0
1710812003626,1710811993472,2130101,0
1710812003626,1710811993511,2127331,0
1710812003626,1710811993552,2124401,0
1710812003626,1710811993592,2121013,0
1710812003626,1710811993632,2116821,0
1710812003626,1710811993673,2109582,0
1710812003626,1710811993712,2100190,0
1710812003626,1710811993752,2089952,0
1710812003626,1710811993792,2080234,0
1710812003626,1710811993832,2072056,0
1710812003626,1710811993874,2065955,0
1710812003626,1710811993913,2060612,0
1710812003626,1710811993953,2054090,0
1710812003626,1710811993993,2046605,0
1710812003626,1710811994033,2039047,0
1710812003626,1710811994074,2032480,0
1710812003626,1710811994113,2026499,0
1710812003626,1710811994154,2021063,0
1710812003626,1710811994194,2015834,0
1710812003626,1710811994234,2010834,0
1710812003626,1710811994275,2006051,0
1710812003626,1710811994314,2000653,0
1710812003626,1710811994354,1991673,0
1710812003626,1710811994395,1980920,0
1710812003626,1710811994435,1971044,0
1710812003626,1710811994475,1963232,0
1710812003626,1710811994515,1957162,0
1710812003626,1710811994555,1952568,0
1710812003626,1710811994595,1947608,0
1710812003626,1710811994635,1941657,0
1710812003626,1710811994676,1935419,0
1710812003626,1710811994716,1929292,0
1710812003626,1710811994756,1923619,0
1710812003626,1710811994796,1918802,0
1710812003626,1710811994836,1914420,0
1710812003626,1710811994877,1910368,0
1710812003626,1710811994916,1906268,0
1710812003626,1710811994959,1902425,0
1710812003626,1710811994996,1897167,0
1710812003626,1710811995036,1888202,0
1710812003626,1710811995077,1878114,0
1710812003626,1710811995116,1869487,0
1710812003626,1710811995156,1862629,0
1710812003626,1710811995197,1857290,0
1710812003626,1710811995237,1853014,0
1710812003626,1710811995277,1848727,0
1710812003626,1710811995317,1843662,0
1710812003626,1710811995357,1838375,0
1710812003626,1710811995397,1833953,0
1710812003626,1710811995437,1830175,0
1710812003626,1710811995478,1827159,0
1710812003626,1710811995517,1824548,0
1710812003626,1710811995557,1822401,0
1710812003626,1710811995598,1820554,0
1710812003626,1710811995638,1818581,0
1710812003626,1710811995678,1813971,0
1710812003626,1710811995718,1806307,0
1710812003626,1710811995758,1798592,0
1710812003626,1710811995798,1792351,0
1710812003626,1710811995838,1787861,0
1710812003626,1710811995879,1784786,0
1710812003626,1710811995918,1782121,0
1710812003626,1710811995958,1778681,0
1710812003626,1710811995999,1774368,0
1710812003626,1710811996039,1770431,0
1710812003626,1710811996080,1766846,0
1710812003626,1710811996119,1764186,0
1710812003626,1710811996159,1762182,0
1710812003626,1710811996199,1760566,0
1710812003626,1710811996239,1759359,0
1710812003626,1710811996280,1758168,0
1710812003626,1710811996320,1753869,0
1710812003626,1710811996359,1746779,0
1710812003626,1710811996400,1740089,0
1710812003626,1710811996440,1735216,0
1710812003626,1710811996480,1732087,0
1710812003626,1710811996520,1730342,0
1710812003626,1710811996560,1728774,0
1710812003626,1710811996600,1726437,0
1710812003626,1710811996640,1723341,0
1710812003626,1710811996681,1720290,0
1710812003626,1710811996720,1717635,0
1710812003626,1710811996760,1715930,0
1710812003626,1710811996800,1714554,0
1710812003626,1710811996840,1713701,0
1710812003626,1710811996881,1712959,0
1710812003626,1710811996921,1711529,0
1710812003626,1710811996961,1705908,0
1710812003626,1710811997001,1698951,0
1710812003626,1710811997041,1693361,0
1710812003626,1710811997082,1690029,0
1710812003626,1710811997121,1688282,0
1710812003626,1710811997161,1687323,0
1710812003626,1710811997201,1686183,0
1710812003626,1710811997242,1683923,0
1710812003626,1710811997282,1681103,0
1710812003626,1710811997322,1678656,0
1710812003626,1710811997362,1677417,0
1710812003626,1710811997402,1677331,0
1710812003626,1710811997442,1677833,0
1710812003626,1710811997483,1678312,0
1710812003626,1710811997523,1678727,0
1710812003626,1710811997562,1678743,0
1710812003626,1710811997603,1675351,0
1710812003626,1710811997643,1669383,0
1710812003626,1710811997683,1664076,0
1710812003626,1710811997723,1660759,0
1710812003626,1710811997763,1659218,0
1710812003626,1710811997803,1658827,0
1710812003626,1710811997843,1658567,0
1710812003626,1710811997884,1657659,0
1710812003626,1710811997923,1656017,0
1710812003626,1710811997963,1654372,0
1710812003626,1710811998004,1653461,0
1710812003626,1710811998044,1653473,0
1710812003626,1710811998084,1653945,0
1710812003626,1710811998124,1654850,0
1710812003626,1710811998164,1655902,0
1710812003626,1710811998204,1657314,0
1710812003626,1710811998244,1657845,0
1710812003626,1710811998285,1654388,0
1710812003626,1710811998324,1649600,0
1710812003626,1710811998365,1646250,0
1710812003626,1710811998404,1644675,0
1710812003626,1710811998445,1644611,0
1710812003626,1710811998486,1645431,0
1710812003626,1710811998525,1646175,0
1710812003626,1710811998565,1646251,0
1710812003626,1710811998605,1646124,0
1710812003626,1710811998645,1646220,0
1710812003626,1710811998686,1647055,0
1710812003626,1710811998725,1648288,0
1710812003626,1710811998765,1649792,0
1710812003626,1710811998806,1651610,0
1710812003626,1710811998846,1653435,0
1710812003626,1710811998887,1655159,0
1710812003626,1710811998926,1655799,0
1710812003626,1710811998966,1652788,0
1710812003626,1710811999006,1648704,0
1710812003626,1710811999046,1646012,0
1710812003626,1710811999087,1645239,0
1710812003626,1710811999127,1645902,0
1710812003626,1710811999167,1647154,0
1710812003626,1710811999207,1648140,0
1710812003626,1710811999247,1648453,0
1710812003626,1710811999288,1648359,0
1710812003626,1710811999327,1648827,0
1710812003626,1710811999367,1649885,0
1710812003626,1710811999407,1651108,0
1710812003626,1710811999448,1652718,0
1710812003626,1710811999488,1654536,0
1710812003626,1710811999528,1656376,0
1710812003626,1710811999568,1658011,0
1710812003626,1710811999608,1657116,0
1710812003626,1710811999648,1653298,0
1710812003626,1710811999689,1649790,0
1710812003626,1710811999728,1648286,0
1710812003626,1710811999768,1648333,0
1710812003626,1710811999809,1649323,0
1710812003626,1710811999849,1650692,0
1710812003626,1710811999890,1651488,0
1710812003626,1710811999929,1651608,0
1710812003626,1710811999969,1651868,0
1710812003626,1710812000009,1652647,0
1710812003626,1710812000049,1653773,0
1710812003626,1710812000090,1655432,0
1710812003626,1710812000130,1657276,0
1710812003626,1710812000170,1659207,0
1710812003626,1710812000210,1661314,0
1710812003626,1710812000250,1662948,0
1710812003626,1710812000291,1661737,0
1710812003626,1710812000330,1658249,0
1710812003626,1710812000370,1655371,0
1710812003626,1710812000411,1654348,0
1710812003626,1710812000451,1654697,0
1710812003626,1710812000491,1655982,0
1710812003626,1710812000531,1657394,0
1710812003626,1710812000571,1658228,0
1710812003626,1710812000611,1658429,0
1710812003626,1710812000651,1658853,0
1710812003626,1710812000692,1659784,0
1710812003626,1710812000731,1661220,0
1710812003626,1710812000772,1662805,0
1710812003626,1710812000812,1664771,0
1710812003626,1710812000852,1666637,0
1710812003626,1710812000893,1668778,0
1710812003626,1710812000932,1670471,0
1710812003626,1710812000972,1669255,0
1710812003626,1710812001012,1666423,0
1710812003626,1710812001052,1664274,0
1710812003626,1710812001093,1664010,0
1710812003626,1710812001133,1665036,0
1710812003626,1710812001173,1666725,0
1710812003626,1710812001213,1668412,0
1710812003626,1710812001253,1669631,0
1710812003626,1710812001294,1670400,0
1710812003626,1710812001333,1671268,0
1710812003626,1710812001373,1672731,0
1710812003626,1710812001413,1674460,0
1710812003626,1710812001454,1676730,0
1710812003626,1710812001494,1679101,0
1710812003626,1710812001534,1681536,0
1710812003626,1710812001574,1684022,0
1710812003626,1710812001614,1686185,0
1710812003626,1710812001654,1686073,0
1710812003626,1710812001695,1684024,0
1710812003626,1710812001734,1682527,0
1710812003626,1710812001774,1682558,0
1710812003626,1710812001815,1683677,0
1710812003626,1710812001855,1685351,0
1710812003626,1710812001896,1687287,0
1710812003626,1710812001935,1688621,0
1710812003626,1710812001975,1689551,0
1710812003626,1710812002015,1690590,0
1710812003626,1710812002055,1691875,0
1710812003626,1710812002096,1693244,0
1710812003626,1710812002136,1695071,0
1710812003626,1710812002176,1697267,0
1710812003626,1710812002216,1699304,0
1710812003626,1710812002256,1701502,0
1710812003626,1710812002297,1702478,0
1710812003626,1710812002336,1701018,0
1710812003626,1710812002376,1699195,0
1710812003626,1710812002416,1698396,0
1710812003626,1710812002456,1698863,0
1710812003626,1710812002497,1700175,0
1710812003626,1710812002537,1701489,0
1710812003626,1710812002577,1702109,0
1710812003626,1710812002617,1702730,0
1710812003626,1710812002657,1703923,0
1710812003626,1710812002698,1704958,0
1710812003626,1710812002737,1706590,0
1710812003626,1710812002777,1709448,0
1710812003626,1710812002817,1710678,0
1710812003626,1710812002857,1710429,0
1710812003626,1710812002898,1712608,0
1710812003626,1710812002938,1716597,0
1710812003626,1710812002978,1723914,0
1710812003626,1710812003018,1735281,0
1710812003626,1710812003058,1747909,0
1710812003626,1710812003099,1759783,0
1710812003626,1710812003138,1769532,0
1710812003626,1710812003178,1778280,0
1710812003626,1710812003218,1785953,0
1710812003626,1710812003258,1792702,0
1710812003626,1710812003299,1799060,0
1710812003626,1710812003338,1804935,0
1710812003626,1710812003378,1810171,0
1710812003626,1710812003419,1815042,0
1710812003626,1710812003459,1819703,0
1710812003626,1710812003499,1823910,0
1710812003626,1710812003539,1828030,0
1710812003626,1710812003579,1832057,0
1710812015636,1710812003615,1835924,0
1710812015636,1710812003655,1839358,0
1710812015636,1710812003696,1842776,0
1710812015636,1710812003735,1846068,0
1710812015636,1710812003776,1849692,0
1710812015636,1710812003816,1853723,0
1710812015636,1710812003856,1857297,0
1710812015636,1710812003897,1860930,0
1710812015636,1710812003936,1864464,0
1710812015636,1710812003976,1868137,0
1710812015636,1710812004016,1871888,0
1710812015636,1710812004056,1875402,0
1710812015636,1710812004097,1878950,0
1710812015636,1710812004137,1882368,0
1710812015636,1710812004177,1885770,0
1710812015636,1710812004217,1888738,0
1710812015636,1710812004257,1891411,0
1710812015636,1710812004298,1892863,0
1710812015636,1710812004337,1894599,0
1710812015636,1710812004377,1896582,0
1710812015636,1710812004417,1899308,0
1710812015636,1710812004457,1901862,0
1710812015636,1710812004498,1904344,0
1710812015636,1710812004537,1906796,0
1710812015636,1710812004577,1909052,0
1710812015636,1710812004618,1911176,0
1710812015636,1710812004658,1913455,0
1710812015636,1710812004699,1915632,0
1710812015636,1710812004738,1917892,0
1710812015636,1710812004778,1920017,0
1710812015636,1710812004818,1922397,0
1710812015636,1710812004858,1924491,0
1710812015636,1710812004899,1926448,0
1710812015636,1710812004938,1928206,0
1710812015636,1710812004979,1929152,0
1710812015636,1710812005019,1929987,0
1710812015636,1710812005059,1930756,0
1710812015636,1710812005100,1931417,0
1710812015636,1710812005139,1931922,0
1710812015636,1710812005179,1932027,0
1710812015636,1710812005219,1932156,0
1710812015636,1710812005259,1931918,0
1710812015636,1710812005300,1931361,0
1710812015636,1710812005340,1931163,0
1710812015636,1710812005380,1931287,0
1710812015636,1710812005420,1931425,0
1710812015636,1710812005460,1931205,0
1710812015636,1710812005501,1930463,0
1710812015636,1710812005540,1929661,0
1710812015636,1710812005580,1928516,0
1710812015636,1710812005620,1926437,0
1710812015636,1710812005660,1923138,0
1710812015636,1710812005701,1919181,0
1710812015636,1710812005741,1915234,0
1710812015636,1710812005781,1912001,0
1710812015636,1710812005821,1909563,0
1710812015636,1710812005861,1907955,0
1710812015636,1710812005902,1906209,0
1710812015636,1710812005941,1904190,0
1710812015636,1710812005981,1901730,0
1710812015636,1710812006021,1899393,0
1710812015636,1710812006061,1897226,0
1710812015636,1710812006102,1895448,0
1710812015636,1710812006142,1894111,0
1710812015636,1710812006182,1893144,0
1710812015636,1710812006222,1892836,0
1710812015636,1710812006262,1892345,0
1710812015636,1710812006303,1891009,0
1710812015636,1710812006342,1887208,0
1710812015636,1710812006382,1882145,0
1710812015636,1710812006422,1877867,0
1710812015636,1710812006462,1874456,0
1710812015636,1710812006503,1872054,0
1710812015636,1710812006543,1870096,0
1710812015636,1710812006583,1867957,0
1710812015636,1710812006623,1865451,0
1710812015636,1710812006663,1862425,0
1710812015636,1710812006704,1858913,0
1710812015636,1710812006743,1856074,0
1710812015636,1710812006783,1854236,0
1710812015636,1710812006823,1853248,0
1710812015636,1710812006864,1852509,0
1710812015636,1710812006904,1851283,0
1710812015636,1710812006944,1849883,0
1710812015636,1710812006984,1846810,0
1710812015636,1710812007024,1841354,0
1710812015636,1710812007064,1835643,0
1710812015636,1710812007105,1831009,0
1710812015636,1710812007145,1827749,0
1710812015636,1710812007184,1825823,0
1710812015636,1710812007225,1824255,0
1710812015636,1710812007265,1821953,0
1710812015636,1710812007306,1819176,0
1710812015636,1710812007345,1816418,0
1710812015636,1710812007385,1813992,0
1710812015636,1710812007425,1812219,0
1710812015636,1710812007466,1810729,0
1710812015636,1710812007506,1809440,0
1710812015636,1710812007546,1808454,0
1710812015636,1710812007586,1807436,0
1710812015636,1710812007626,1806418,0
1710812015636,1710812007666,1802698,0
1710812015636,1710812007707,1797609,0
1710812015636,1710812007746,1793217,0
1710812015636,1710812007786,1790196,0
1710812015636,1710812007827,1788379,0
1710812015636,1710812007867,1787405,0
1710812015636,1710812007908,1786196,0
1710812015636,1710812007947,1784331,0
1710812015636,1710812007987,1782049,0
1710812015636,1710812008027,1780363,0
1710812015636,1710812008067,1779014,0
1710812015636,1710812008108,1777965,0
1710812015636,1710812008148,1777466,0
1710812015636,1710812008188,1777302,0
1710812015636,1710812008228,1777197,0
1710812015636,1710812008268,1776878,0
1710812015636,1710812008309,1775806,0
1710812015636,1710812008348,1772478,0
1710812015636,1710812008388,1768635,0
1710812015636,1710812008429,1765984,0
1710812015636,1710812008469,1764552,0
1710812015636,1710812008510,1763782,0
1710812015636,1710812008549,1763646,0
1710812015636,1710812008589,1763061,0
1710812015636,1710812008629,1761880,0
1710812015636,1710812008669,1760230,0
1710812015636,1710812008710,1758923,0
1710812015636,1710812008750,1757825,0
1710812015636,1710812008790,1757233,0
1710812015636,1710812008830,1756505,0
1710812015636,1710812008870,1755238,0
1710812015636,1710812008911,1753146,0
1710812015636,1710812008950,1751427,0
1710812015636,1710812008990,1749062,0
1710812015636,1710812009031,1747114,0
1710812015636,1710812009071,1746863,0
1710812015636,1710812009112,1747816,0
1710812015636,1710812009151,1750377,0
1710812015636,1710812009191,1754310,0
1710812015636,1710812009231,1761059,0
1710812015636,1710812009271,1772184,0
1710812015636,1710812009312,1786438,0
1710812015636,1710812009352,1802189,0
1710812015636,1710812009392,1818703,0
1710812015636,1710812009432,1844140,0
1710812015636,1710812009472,1866004,0
1710812015636,1710812009513,1891639,0
1710812015636,1710812009552,1914216,0
1710812015636,1710812009592,1942094,0
1710812015636,1710812009632,1941363,0
1710812015636,1710812009672,1942304,0
1710812015636,1710812009713,1948362,0
1710812015636,1710812009752,1955065,0
1710812015636,1710812009793,1960699,0
1710812015636,1710812009833,1962650,0
1710812015636,1710812009873,1967098,0
1710812015636,1710812009914,1970761,0
1710812015636,1710812009953,1972103,0
1710812015636,1710812009993,1971749,0
1710812015636,1710812010033,1968112,0
1710812015636,1710812010073,1965799,0
1710812015636,1710812010114,1964696,0
1710812015636,1710812010153,1963279,0
1710812015636,1710812010193,1961612,0
1710812015636,1710812010234,1960211,0
1710812015636,1710812010274,1957460,0
1710812015636,1710812010314,1953693,0
1710812015636,1710812010354,1950369,0
1710812015636,1710812010394,1947637,0
1710812015636,1710812010434,1945530,0
1710812015636,1710812010474,1944893,0
1710812015636,1710812010515,1944894,0
1710812015636,1710812010554,1945583,0
1710812015636,1710812010594,1945922,0
1710812015636,1710812010635,1946117,0
1710812015636,1710812010674,1945923,0
1710812015636,1710812010715,1946082,0
1710812015636,1710812010755,1946619,0
1710812015636,1710812010795,1947345,0
1710812015636,1710812010835,1949340,0
1710812015636,1710812010875,1950145,0
1710812015636,1710812010916,1949537,0
1710812015636,1710812010955,1951502,0
1710812015636,1710812010995,1954919,0
1710812015636,1710812011035,1961635,0
1710812015636,1710812011075,1971934,0
1710812015636,1710812011116,1981321,0
1710812015636,1710812011156,1985465,0
1710812015636,1710812011196,1992462,0
1710812015636,1710812011236,2003092,0
1710812015636,1710812011276,2006964,0
1710812015636,1710812011317,2000647,0
1710812015636,1710812011356,2002608,0
1710812015636,1710812011396,2001175,0
1710812015636,1710812011436,2005883,0
1710812015636,1710812011477,2008189,0
1710812015636,1710812011517,2008980,0
1710812015636,1710812011557,2010201,0
1710812015636,1710812011597,2010980,0
1710812015636,1710812011637,2009465,0
1710812015636,1710812011677,2011428,0
1710812015636,1710812011718,2014756,0
1710812015636,1710812011757,2022438,0
1710812015636,1710812011797,2029367,0
1710812015636,1710812011837,2036393,0
1710812015636,1710812011878,2039551,0
1710812015636,1710812011918,2039337,0
1710812015636,1710812011958,2033617,0
1710812015636,1710812011998,2025849,0
1710812015636,1710812012038,2019349,0
1710812015636,1710812012078,2014154,0
1710812015636,1710812012119,2012338,0
1710812015636,1710812012158,2014180,0
1710812015636,1710812012198,2016240,0
1710812015636,1710812012238,2023741,0
1710812015636,1710812012279,2029111,0
1710812015636,1710812012320,2030336,0
1710812015636,1710812012359,2031489,0
1710812015636,1710812012399,2039595,0
1710812015636,1710812012439,2046884,0
1710812015636,1710812012479,2052394,0
1710812015636,1710812012520,2056826,0
1710812015636,1710812012560,2061267,0
1710812015636,1710812012599,2069311,0
1710812015636,1710812012640,2077261,0
1710812015636,1710812012680,2080635,0
1710812015636,1710812012720,2076007,0
1710812015636,1710812012760,2067762,0
1710812015636,1710812012800,2063043,0
1710812015636,1710812012840,2058631,0
1710812015636,1710812012880,2055947,0
1710812015636,1710812012921,2054070,0
1710812015636,1710812012960,2050769,0
1710812015636,1710812013000,2052356,0
1710812015636,1710812013041,2050854,0
1710812015636,1710812013081,2053006,0
1710812015636,1710812013122,2057639,0
1710812015636,1710812013161,2061223,0
1710812015636,1710812013201,2064097,0
1710812015636,1710812013241,2064357,0
1710812015636,1710812013281,2065167,0
1710812015636,1710812013322,2071112,0
1710812015636,1710812013361,2071560,0
1710812015636,1710812013402,2072997,0
1710812015636,1710812013442,2078274,0
1710812015636,1710812013482,2079848,0
1710812015636,1710812013523,2079417,0
1710812015636,1710812013562,2078944,0
1710812015636,1710812013602,2077274,0
1710812015636,1710812013642,2076878,0
1710812015636,1710812013682,2076116,0
1710812015636,1710812013723,2076392,0
1710812015636,1710812013763,2076520,0
1710812015636,1710812013803,2076266,0
1710812015636,1710812013843,2078611,0
1710812015636,1710812013883,2080946,0
1710812015636,1710812013924,2082776,0
1710812015636,1710812013963,2082405,0
1710812015636,1710812014003,2080657,0
1710812015636,1710812014044,2080874,0
1710812015636,1710812014084,2083033,0
1710812015636,1710812014125,2086505,0
1710812015636,1710812014164,2090237,0
1710812015636,1710812014204,2095883,0
1710812015636,1710812014244,2101677,0
1710812015636,1710812014284,2105757,0
1710812015636,1710812014325,2108611,0
1710812015636,1710812014365,2108926,0
1710812015636,1710812014405,2108809,0
1710812015636,1710812014445,2110524,0
1710812015636,1710812014485,2112985,0
1710812015636,1710812014526,2116047,0
1710812015636,1710812014565,2118065,0
1710812015636,1710812014605,2117301,0
1710812015636,1710812014645,2114703,0
1710812015636,1710812014686,2112196,0
1710812015636,1710812014727,2110541,0
1710812015636,1710812014766,2109184,0
1710812015636,1710812014806,2108329,0
1710812015636,1710812014846,2109021,0
1710812015636,1710812014886,2105946,0
1710812015636,1710812014927,2102114,0
1710812015636,1710812014967,2104928,0
1710812015636,1710812015007,2106797,0
1710812015636,1710812015047,2109130,0
1710812015636,1710812015087,2111807,0
1710812015636,1710812015128,2112728,0
1710812015636,1710812015167,2114555,0
1710812015636,1710812015207,2115723,0
1710812015636,1710812015247,2115175,0
1710812015636,1710812015287,2114309,0
1710812015636,1710812015328,2114677,0
1710812015636,1710812015368,2115758,0
1710812015636,1710812015408,2117444,0
1710812015636,1710812015448,2118799,0
1710812015636,1710812015488,2120422,0
1710812015636,1710812015529,2122237,0
1710812015636,1710812015568,2124313,0
1710812015636,1710812015608,2126607,0
1710812027712,1710812015653,2128556,0
1710812027712,1710812015693,2130028,0
1710812027712,1710812015733,2131919,0
1710812027712,1710812015773,2135015,0
1710812027712,1710812015813,2137330,0
1710812027712,1710812015853,2138980,0
1710812027712,1710812015893,2139464,0
1710812027712,1710812015934,2140050,0
1710812027712,1710812015974,2139353,0
1710812027712,1710812016014,2139699,0
1710812027712,1710812016054,2140267,0
1710812027712,1710812016094,2140109,0
1710812027712,1710812016135,2139833,0
1710812027712,1710812016175,2139797,0
1710812027712,1710812016215,2139625,0
1710812027712,1710812016255,2141030,0
1710812027712,1710812016295,2144123,0
1710812027712,1710812016336,2147595,0
1710812027712,1710812016375,2150288,0
1710812027712,1710812016416,2154081,0
1710812027712,1710812016456,2158411,0
1710812027712,1710812016496,2163541,0
1710812027712,1710812016537,2169500,0
1710812027712,1710812016576,2168609,0
1710812027712,1710812016616,2157895,0
1710812027712,1710812016656,2154301,0
1710812027712,1710812016696,2148210,0
1710812027712,1710812016737,2141792,0
1710812027712,1710812016776,2129945,0
1710812027712,1710812016816,2122912,0
1710812027712,1710812016856,2124942,0
1710812027712,1710812016897,2128109,0
1710812027712,1710812016937,2131017,0
1710812027712,1710812016977,2130491,0
1710812027712,1710812017017,2129998,0
1710812027712,1710812017057,2129672,0
1710812027712,1710812017097,2129319,0
1710812027712,1710812017138,2128949,0
1710812027712,1710812017177,2129323,0
1710812027712,1710812017217,2130541,0
1710812027712,1710812017258,2131744,0
1710812027712,1710812017298,2133021,0
1710812027712,1710812017338,2133797,0
1710812027712,1710812017378,2134126,0
1710812027712,1710812017418,2133970,0
1710812027712,1710812017458,2132955,0
1710812027712,1710812017498,2131986,0
1710812027712,1710812017539,2131369,0
1710812027712,1710812017578,2130843,0
1710812027712,1710812017619,2130498,0
1710812027712,1710812017659,2130386,0
1710812027712,1710812017699,2130587,0
1710812027712,1710812017740,2130228,0
1710812027712,1710812017779,2130201,0
1710812027712,1710812017819,2130421,0
1710812027712,1710812017859,2130727,0
1710812027712,1710812017899,2130728,0
1710812027712,1710812017940,2130660,0
1710812027712,1710812017979,2130487,0
1710812027712,1710812018019,2130948,0
1710812027712,1710812018059,2131432,0
1710812027712,1710812018100,2132726,0
1710812027712,1710812018140,2133459,0
1710812027712,1710812018180,2133374,0
1710812027712,1710812018220,2133421,0
1710812027712,1710812018260,2134170,0
1710812027712,1710812018300,2133782,0
1710812027712,1710812018341,2134362,0
1710812027712,1710812018380,2133223,0
1710812027712,1710812018420,2130841,0
1710812027712,1710812018461,2128093,0
1710812027712,1710812018501,2124112,0
1710812027712,1710812018541,2119319,0
1710812027712,1710812018581,2115988,0
1710812027712,1710812018621,2115471,0
1710812027712,1710812018661,2116397,0
1710812027712,1710812018701,2117018,0
1710812027712,1710812018742,2118247,0
1710812027712,1710812018781,2119056,0
1710812027712,1710812018821,2121932,0
1710812027712,1710812018861,2127289,0
1710812027712,1710812018902,2135016,0
1710812027712,1710812018943,2143764,0
1710812027712,1710812018982,2160539,0
1710812027712,1710812019022,2178087,0
1710812027712,1710812019062,2192319,0
1710812027712,1710812019102,2207426,0
1710812027712,1710812019143,2222447,0
1710812027712,1710812019182,2234628,0
1710812027712,1710812019222,2238409,0
1710812027712,1710812019263,2247663,0
1710812027712,1710812019303,2266167,0
1710812027712,1710812019343,2277311,0
1710812027712,1710812019383,2283612,0
1710812027712,1710812019423,2286579,0
1710812027712,1710812019463,2289566,0
1710812027712,1710812019503,2290974,0
1710812027712,1710812019544,2293194,0
1710812027712,1710812019583,2295804,0
1710812027712,1710812019623,2298092,0
1710812027712,1710812019664,2298972,0
1710812027712,1710812019704,2299347,0
1710812027712,1710812019745,2300381,0
1710812027712,1710812019784,2301258,0
1710812027712,1710812019824,2302066,0
1710812027712,1710812019864,2303325,0
1710812027712,1710812019904,2306053,0
1710812027712,1710812019945,2309853,0
1710812027712,1710812019984,2312962,0
1710812027712,1710812020025,2314733,0
1710812027712,1710812020065,2314799,0
1710812027712,1710812020105,2315829,0
1710812027712,1710812020146,2314334,0
1710812027712,1710812020185,2311113,0
1710812027712,1710812020225,2306348,0
1710812027712,1710812020265,2298735,0
1710812027712,1710812020305,2290786,0
1710812027712,1710812020346,2282718,0
1710812027712,1710812020386,2273689,0
1710812027712,1710812020426,2262550,0
1710812027712,1710812020466,2248673,0
1710812027712,1710812020506,2236479,0
1710812027712,1710812020547,2227145,0
1710812027712,1710812020586,2218923,0
1710812027712,1710812020626,2211747,0
1710812027712,1710812020666,2206007,0
1710812027712,1710812020707,2199957,0
1710812027712,1710812020747,2193966,0
1710812027712,1710812020787,2185044,0
1710812027712,1710812020827,2173488,0
1710812027712,1710812020867,2164431,0
1710812027712,1710812020907,2158242,0
1710812027712,1710812020948,2154019,0
1710812027712,1710812020987,2150899,0
1710812027712,1710812021027,2148026,0
1710812027712,1710812021067,2145538,0
1710812027712,1710812021108,2143187,0
1710812027712,1710812021148,2140472,0
1710812027712,1710812021188,2133143,0
1710812027712,1710812021228,2123160,0
1710812027712,1710812021268,2114698,0
1710812027712,1710812021308,2107770,0
1710812027712,1710812021349,2101606,0
1710812027712,1710812021388,2096687,0
1710812027712,1710812021429,2092069,0
1710812027712,1710812021469,2087453,0
1710812027712,1710812021509,2082202,0
1710812027712,1710812021550,2077068,0
1710812027712,1710812021589,2072804,0
1710812027712,1710812021629,2068891,0
1710812027712,1710812021669,2065417,0
1710812027712,1710812021710,2062488,0
1710812027712,1710812021750,2059829,0
1710812027712,1710812021790,2057232,0
1710812027712,1710812021830,2054837,0
1710812027712,1710812021870,2052690,0
1710812027712,1710812021910,2050098,0
1710812027712,1710812021951,2042879,0
1710812027712,1710812021990,2033231,0
1710812027712,1710812022030,2024042,0
1710812027712,1710812022071,2016306,0
1710812027712,1710812022111,2010058,0
1710812027712,1710812022152,2005046,0
1710812027712,1710812022191,2000780,0
1710812027712,1710812022231,1996355,0
1710812027712,1710812022271,1991602,0
1710812027712,1710812022312,1986904,0
1710812027712,1710812022352,1982540,0
1710812027712,1710812022392,1978945,0
1710812027712,1710812022432,1975768,0
1710812027712,1710812022472,1973233,0
1710812027712,1710812022512,1970640,0
1710812027712,1710812022553,1968516,0
1710812027712,1710812022593,1966538,0
1710812027712,1710812022633,1964660,0
1710812027712,1710812022673,1960234,0
1710812027712,1710812022713,1952267,0
1710812027712,1710812022754,1944095,0
1710812027712,1710812022794,1937362,0
1710812027712,1710812022834,1932020,0
1710812027712,1710812022874,1927965,0
1710812027712,1710812022914,1925013,0
1710812027712,1710812022955,1921963,0
1710812027712,1710812022994,1918729,0
1710812027712,1710812023034,1915193,0
1710812027712,1710812023074,1912143,0
1710812027712,1710812023115,1909713,0
1710812027712,1710812023156,1907777,0
1710812027712,1710812023195,1906229,0
1710812027712,1710812023235,1905122,0
1710812027712,1710812023275,1904126,0
1710812027712,1710812023315,1900712,0
1710812027712,1710812023356,1895115,0
1710812027712,1710812023395,1889000,0
1710812027712,1710812023435,1883743,0
1710812027712,1710812023476,1880018,0
1710812027712,1710812023516,1877481,0
1710812027712,1710812023556,1875815,0
1710812027712,1710812023596,1874343,0
1710812027712,1710812023636,1872445,0
1710812027712,1710812023676,1870393,0
1710812027712,1710812023716,1868675,0
1710812027712,1710812023757,1867205,0
1710812027712,1710812023796,1866420,0
1710812027712,1710812023836,1865783,0
1710812027712,1710812023877,1865487,0
1710812027712,1710812023916,1865309,0
1710812027712,1710812023957,1864608,0
1710812027712,1710812023997,1860917,0
1710812027712,1710812024037,1855825,0
1710812027712,1710812024077,1851421,0
1710812027712,1710812024117,1848284,0
1710812027712,1710812024158,1846303,0
1710812027712,1710812024197,1845203,0
1710812027712,1710812024237,1844442,0
1710812027712,1710812024277,1843457,0
1710812027712,1710812024317,1842098,0
1710812027712,1710812024358,1841011,0
1710812027712,1710812024398,1840164,0
1710812027712,1710812024438,1839822,0
1710812027712,1710812024478,1839685,0
1710812027712,1710812024518,1839811,0
1710812027712,1710812024559,1840366,0
1710812027712,1710812024598,1840768,0
1710812027712,1710812024638,1838579,0
1710812027712,1710812024678,1834260,0
1710812027712,1710812024718,1829963,0
1710812027712,1710812024759,1826827,0
1710812027712,1710812024799,1824696,0
1710812027712,1710812024839,1823657,0
1710812027712,1710812024879,1823294,0
1710812027712,1710812024919,1823062,0
1710812027712,1710812024960,1822650,0
1710812027712,1710812024999,1822249,0
1710812027712,1710812025039,1822209,0
1710812027712,1710812025079,1822268,0
1710812027712,1710812025119,1822769,0
1710812027712,1710812025160,1823424,0
1710812027712,1710812025200,1824462,0
1710812027712,1710812025240,1825598,0
1710812027712,1710812025280,1826801,0
1710812027712,1710812025320,1827438,0
1710812027712,1710812025361,1825020,0
1710812027712,1710812025400,1821381,0
1710812027712,1710812025440,1818145,0
1710812027712,1710812025480,1816093,0
1710812027712,1710812025520,1814910,0
1710812027712,1710812025561,1814361,0
1710812027712,1710812025601,1814173,0
1710812027712,1710812025641,1814138,0
1710812027712,1710812025681,1813812,0
1710812027712,1710812025721,1813731,0
1710812027712,1710812025762,1813887,0
1710812027712,1710812025801,1814298,0
1710812027712,1710812025841,1815060,0
1710812027712,1710812025881,1816227,0
1710812027712,1710812025922,1817344,0
1710812027712,1710812025962,1818685,0
1710812027712,1710812026002,1820100,0
1710812027712,1710812026042,1821604,0
1710812027712,1710812026082,1822404,0
1710812027712,1710812026122,1820430,0
1710812027712,1710812026163,1817478,0
1710812027712,1710812026202,1814937,0
1710812027712,1710812026242,1813356,0
1710812027712,1710812026283,1812645,0
1710812027712,1710812026323,1812580,0
1710812027712,1710812026363,1812865,0
1710812027712,1710812026403,1813169,0
1710812027712,1710812026443,1813235,0
1710812027712,1710812026483,1813512,0
1710812027712,1710812026523,1814126,0
1710812027712,1710812026564,1814924,0
1710812027712,1710812026603,1815912,0
1710812027712,1710812026644,1817406,0
1710812027712,1710812026684,1818849,0
1710812027712,1710812026724,1820389,0
1710812027712,1710812026765,1821942,0
1710812027712,1710812026804,1823673,0
1710812027712,1710812026844,1825329,0
1710812027712,1710812026884,1827021,0
1710812027712,1710812026924,1826469,0
1710812027712,1710812026965,1824519,0
1710812027712,1710812027005,1822425,0
1710812027712,1710812027044,1821387,0
1710812027712,1710812027085,1821138,0
1710812027712,1710812027125,1821283,0
1710812027712,1710812027166,1822023,0
1710812027712,1710812027205,1822679,0
1710812027712,1710812027245,1823168,0
1710812027712,1710812027285,1823851,0
1710812027712,1710812027325,1824564,0
1710812027712,1710812027366,1825649,0
1710812027712,1710812027406,1826880,0
1710812027712,1710812027446,1828266,0
1710812027712,1710812027486,1829867,0
1710812027712,1710812027526,1831657,0
1710812027712,1710812027567,1833432,0
1710812027712,1710812027606,1835172,0
1710812027712,1710812027646,1836857,0
1710812039765,1710812027686,1838871,0
1710812039765,1710812027726,1840441,0
1710812039765,1710812027766,1840057,0
1710812039765,1710812027806,1838867,0
1710812039765,1710812027846,1838058,0
1710812039765,1710812027886,1837877,0
1710812039765,1710812027926,1838375,0
1710812039765,1710812027967,1839169,0
1710812039765,1710812028006,1840132,0
1710812039765,1710812028047,1841225,0
1710812039765,1710812028087,1842079,0
1710812039765,1710812028127,1843064,0
1710812039765,1710812028168,1844109,0
1710812039765,1710812028207,1845358,0
1710812039765,1710812028247,1846745,0
1710812039765,1710812028287,1848296,0
1710812039765,1710812028328,1849958,0
1710812039765,1710812028368,1851658,0
1710812039765,1710812028408,1853240,0
1710812039765,1710812028448,1855173,0
1710812039765,1710812028488,1856805,0
1710812039765,1710812028528,1858554,0
1710812039765,1710812028569,1860150,0
1710812039765,1710812028608,1860229,0
1710812039765,1710812028648,1859864,0
1710812039765,1710812028689,1859574,0
1710812039765,1710812028729,1859808,0
1710812039765,1710812028769,1860644,0
1710812039765,1710812028809,1861580,0
1710812039765,1710812028849,1862750,0
1710812039765,1710812028889,1864038,0
1710812039765,1710812028929,1864957,0
1710812039765,1710812028970,1866208,0
1710812039765,1710812029010,1867314,0
1710812039765,1710812029050,1868663,0
1710812039765,1710812029090,1870170,0
1710812039765,1710812029130,1871552,0
1710812039765,1710812029171,1873244,0
1710812039765,1710812029210,1874802,0
1710812039765,1710812029251,1876471,0
1710812039765,1710812029291,1878016,0
1710812039765,1710812029331,1879666,0
1710812039765,1710812029372,1881353,0
1710812039765,1710812029411,1882297,0
1710812039765,1710812029451,1882379,0
1710812039765,1710812029492,1882204,0
1710812039765,1710812029532,1882703,0
1710812039765,1710812029573,1883416,0
1710812039765,1710812029612,1884499,0
1710812039765,1710812029652,1885730,0
1710812039765,1710812029692,1887056,0
1710812039765,1710812029732,1888227,0
1710812039765,1710812029773,1889323,0
1710812039765,1710812029813,1890443,0
1710812039765,1710812029853,1891678,0
1710812039765,1710812029893,1892975,0
1710812039765,1710812029933,1894458,0
1710812039765,1710812029974,1895864,0
1710812039765,1710812030013,1897443,0
1710812039765,1710812030053,1898923,0
1710812039765,1710812030094,1900359,0
1710812039765,1710812030134,1901820,0
1710812039765,1710812030175,1903355,0
1710812039765,1710812030214,1904252,0
1710812039765,1710812030254,1904461,0
1710812039765,1710812030294,1904489,0
1710812039765,1710812030334,1904711,0
1710812039765,1710812030375,1905615,0
1710812039765,1710812030414,1906616,0
1710812039765,1710812030454,1907748,0
1710812039765,1710812030495,1909008,0
1710812039765,1710812030535,1910000,0
1710812039765,1710812030575,1911066,0
1710812039765,1710812030615,1912210,0
1710812039765,1710812030655,1913215,0
1710812039765,1710812030695,1914456,0
1710812039765,1710812030735,1915781,0
1710812039765,1710812030776,1917299,0
1710812039765,1710812030815,1918548,0
1710812039765,1710812030855,1919943,0
1710812039765,1710812030895,1921309,0
1710812039765,1710812030935,1922720,0
1710812039765,1710812030976,1924061,0
1710812039765,1710812031016,1925360,0
1710812039765,1710812031056,1925683,0
1710812039765,1710812031096,1925746,0
1710812039765,1710812031136,1925885,0
1710812039765,1710812031177,1926298,0
1710812039765,1710812031216,1927077,0
1710812039765,1710812031256,1928092,0
1710812039765,1710812031296,1929305,0
1710812039765,1710812031336,1930357,0
1710812039765,1710812031377,1931293,0
1710812039765,1710812031416,1932307,0
1710812039765,1710812031457,1933313,0
1710812039765,1710812031497,1934351,0
1710812039765,1710812031537,1935798,0
1710812039765,1710812031578,1937487,0
1710812039765,1710812031617,1939203,0
1710812039765,1710812031657,1941146,0
1710812039765,1710812031697,1943391,0
1710812039765,1710812031737,1945531,0
1710812039765,1710812031778,1947545,0
1710812039765,1710812031818,1949130,0
1710812039765,1710812031857,1951410,0
1710812039765,1710812031898,1952416,0
1710812039765,1710812031938,1953428,0
1710812039765,1710812031978,1954412,0
1710812039765,1710812032018,1955075,0
1710812039765,1710812032058,1955724,0
1710812039765,1710812032098,1955764,0
1710812039765,1710812032138,1955894,0
1710812039765,1710812032179,1957117,0
1710812039765,1710812032218,1959492,0
1710812039765,1710812032258,1966028,0
1710812039765,1710812032299,1977618,0
1710812039765,1710812032339,1989717,0
1710812039765,1710812032379,1998909,0
1710812039765,1710812032419,2007666,0
1710812039765,1710812032459,2018277,0
1710812039765,1710812032499,2028560,0
1710812039765,1710812032539,2036052,0
1710812039765,1710812032580,2040001,0
1710812039765,1710812032619,2046483,0
1710812039765,1710812032660,2056245,0
1710812039765,1710812032700,2062032,0
1710812039765,1710812032740,2064274,0
1710812039765,1710812032781,2055148,0
1710812039765,1710812032820,2048224,0
1710812039765,1710812032860,2043410,0
1710812039765,1710812032900,2040842,0
1710812039765,1710812032940,2039116,0
1710812039765,1710812032981,2036167,0
1710812039765,1710812033020,2034546,0
1710812039765,1710812033060,2035326,0
1710812039765,1710812033101,2035533,0
1710812039765,1710812033141,2036733,0
1710812039765,1710812033181,2039132,0
1710812039765,1710812033221,2041320,0
1710812039765,1710812033261,2044326,0
1710812039765,1710812033301,2046937,0
1710812039765,1710812033341,2052022,0
1710812039765,1710812033382,2059974,0
1710812039765,1710812033421,2066015,0
1710812039765,1710812033462,2075948,0
1710812039765,1710812033502,2084986,0
1710812039765,1710812033542,2094258,0
1710812039765,1710812033583,2104032,0
1710812039765,1710812033622,2112290,0
1710812039765,1710812033662,2118080,0
1710812039765,1710812033702,2123177,0
1710812039765,1710812033742,2125713,0
1710812039765,1710812033783,2125221,0
1710812039765,1710812033822,2118130,0
1710812039765,1710812033863,2111582,0
1710812039765,1710812033903,2111827,0
1710812039765,1710812033943,2112153,0
1710812039765,1710812033984,2111865,0
1710812039765,1710812034023,2111588,0
1710812039765,1710812034063,2112827,0
1710812039765,1710812034103,2111768,0
1710812039765,1710812034143,2108978,0
1710812039765,1710812034184,2101574,0
1710812039765,1710812034224,2098716,0
1710812039765,1710812034264,2091401,0
1710812039765,1710812034304,2087695,0
1710812039765,1710812034344,2079994,0
1710812039765,1710812034385,2075605,0
1710812039765,1710812034424,2074093,0
1710812039765,1710812034464,2073326,0
1710812039765,1710812034504,2069979,0
1710812039765,1710812034544,2072786,0
1710812039765,1710812034585,2074554,0
1710812039765,1710812034625,2073072,0
1710812039765,1710812034665,2072860,0
1710812039765,1710812034705,2073851,0
1710812039765,1710812034745,2075590,0
1710812039765,1710812034786,2078229,0
1710812039765,1710812034825,2080261,0
1710812039765,1710812034865,2081935,0
1710812039765,1710812034905,2082352,0
1710812039765,1710812034945,2081792,0
1710812039765,1710812034986,2080360,0
1710812039765,1710812035026,2079093,0
1710812039765,1710812035066,2078328,0
1710812039765,1710812035106,2079654,0
1710812039765,1710812035146,2082079,0
1710812039765,1710812035187,2083890,0
1710812039765,1710812035226,2084437,0
1710812039765,1710812035266,2084868,0
1710812039765,1710812035306,2084458,0
1710812039765,1710812035346,2083595,0
1710812039765,1710812035387,2082364,0
1710812039765,1710812035427,2080121,0
1710812039765,1710812035467,2076858,0
1710812039765,1710812035507,2074712,0
1710812039765,1710812035547,2072893,0
1710812039765,1710812035588,2069534,0
1710812039765,1710812035627,2064150,0
1710812039765,1710812035667,2059041,0
1710812039765,1710812035708,2055471,0
1710812039765,1710812035748,2053448,0
1710812039765,1710812035789,2051364,0
1710812039765,1710812035828,2049843,0
1710812039765,1710812035868,2048723,0
1710812039765,1710812035908,2047933,0
1710812039765,1710812035948,2047026,0
1710812039765,1710812035989,2046688,0
1710812039765,1710812036029,2046313,0
1710812039765,1710812036069,2045880,0
1710812039765,1710812036109,2046493,0
1710812039765,1710812036149,2047805,0
1710812039765,1710812036190,2049433,0
1710812039765,1710812036229,2052501,0
1710812039765,1710812036269,2055151,0
1710812039765,1710812036309,2055923,0
1710812039765,1710812036350,2056358,0
1710812039765,1710812036391,2056983,0
1710812039765,1710812036430,2058545,0
1710812039765,1710812036470,2060743,0
1710812039765,1710812036510,2062455,0
1710812039765,1710812036550,2063819,0
1710812039765,1710812036591,2064872,0
1710812039765,1710812036631,2065098,0
1710812039765,1710812036671,2064929,0
1710812039765,1710812036711,2064542,0
1710812039765,1710812036751,2065110,0
1710812039765,1710812036792,2065747,0
1710812039765,1710812036831,2066515,0
1710812039765,1710812036871,2067325,0
1710812039765,1710812036911,2068295,0
1710812039765,1710812036952,2069065,0
1710812039765,1710812036993,2066805,0
1710812039765,1710812037032,2062167,0
1710812039765,1710812037072,2057679,0
1710812039765,1710812037112,2054348,0
1710812039765,1710812037152,2051966,0
1710812039765,1710812037193,2051001,0
1710812039765,1710812037233,2050916,0
1710812039765,1710812037273,2050927,0
1710812039765,1710812037313,2050765,0
1710812039765,1710812037353,2050191,0
1710812039765,1710812037394,2049615,0
1710812039765,1710812037433,2049158,0
1710812039765,1710812037474,2048864,0
1710812039765,1710812037514,2048667,0
1710812039765,1710812037554,2049434,0
1710812039765,1710812037595,2050208,0
1710812039765,1710812037634,2049331,0
1710812039765,1710812037674,2045508,0
1710812039765,1710812037714,2041101,0
1710812039765,1710812037754,2037672,0
1710812039765,1710812037795,2035675,0
1710812039765,1710812037834,2034685,0
1710812039765,1710812037874,2034354,0
1710812039765,1710812037914,2034196,0
1710812039765,1710812037955,2033917,0
1710812039765,1710812037995,2033147,0
1710812039765,1710812038035,2032583,0
1710812039765,1710812038075,2032296,0
1710812039765,1710812038115,2032188,0
1710812039765,1710812038155,2032699,0
1710812039765,1710812038196,2033277,0
1710812039765,1710812038235,2033937,0
1710812039765,1710812038275,2034908,0
1710812039765,1710812038316,2034493,0
1710812039765,1710812038356,2031438,0
1710812039765,1710812038396,2027639,0
1710812039765,1710812038436,2024712,0
1710812039765,1710812038476,2023194,0
1710812039765,1710812038516,2022706,0
1710812039765,1710812038556,2022901,0
1710812039765,1710812038597,2023464,0
1710812039765,1710812038636,2023931,0
1710812039765,1710812038677,2023925,0
1710812039765,1710812038717,2024040,0
1710812039765,1710812038757,2024507,0
1710812039765,1710812038798,2025325,0
1710812039765,1710812038837,2026482,0
1710812039765,1710812038877,2027707,0
1710812039765,1710812038917,2029220,0
1710812039765,1710812038957,2030890,0
1710812039765,1710812038998,2030459,0
1710812039765,1710812039037,2027104,0
1710812039765,1710812039077,2022924,0
1710812039765,1710812039118,2019633,0
1710812039765,1710812039158,2017748,0
1710812039765,1710812039198,2016600,0
1710812039765,1710812039238,2016156,0
1710812039765,1710812039278,2015987,0
1710812039765,1710812039318,2015702,0
1710812039765,1710812039358,2015469,0
1710812039765,1710812039399,2015108,0
1710812039765,1710812039438,2014973,0
1710812039765,1710812039478,2015217,0
1710812039765,1710812039519,2015738,0
1710812039765,1710812039559,2016320,0
1710812039765,1710812039600,2017089,0
1710812039765,1710812039639,2018023,0
1710812039765,1710812039679,2017847,0
1710812051796,1710812039719,2014954,0
1710812051796,1710812039760,2011275,0
1710812051796,1710812039800,2008503,0
1710812051796,1710812039840,2007210,0
1710812051796,1710812039880,2006894,0
1710812051796,1710812039920,2007228,0
1710812051796,1710812039960,2007389,0
1710812051796,1710812040001,2007026,0
1710812051796,1710812040040,2006831,0
1710812051796,1710812040080,2006706,0
1710812051796,1710812040121,2006773,0
1710812051796,1710812040161,2006914,0
1710812051796,1710812040201,2007516,0
1710812051796,1710812040241,2008112,0
1710812051796,1710812040281,2008946,0
1710812051796,1710812040321,2009694,0
1710812051796,1710812040361,2010411,0
1710812051796,1710812040402,2008888,0
1710812051796,1710812040441,2005119,0
1710812051796,1710812040482,2001445,0
1710812051796,1710812040522,1999350,0
1710812051796,1710812040562,1998197,0
1710812051796,1710812040603,1997875,0
1710812051796,1710812040642,1998111,0
1710812051796,1710812040682,1998381,0
1710812051796,1710812040722,1998119,0
1710812051796,1710812040762,1998049,0
1710812051796,1710812040803,1998055,0
1710812051796,1710812040843,1998157,0
1710812051796,1710812040883,1998359,0
1710812051796,1710812040923,1998980,0
1710812051796,1710812040963,1999831,0
1710812051796,1710812041004,2000951,0
1710812051796,1710812041043,2002106,0
1710812051796,1710812041083,2002620,0
1710812051796,1710812041123,2000723,0
1710812051796,1710812041163,1997776,0
1710812051796,1710812041204,1995673,0
1710812051796,1710812041244,1994964,0
1710812051796,1710812041284,1995033,0
1710812051796,1710812041324,1995685,0
1710812051796,1710812041364,1996696,0
1710812051796,1710812041405,1997120,0
1710812051796,1710812041444,1997414,0
1710812051796,1710812041484,1997689,0
1710812051796,1710812041524,1998006,0
1710812051796,1710812041565,1998590,0
1710812051796,1710812041605,1999500,0
1710812051796,1710812041645,2000624,0
1710812051796,1710812041685,2001992,0
1710812051796,1710812041725,2003293,0
1710812051796,1710812041765,2004050,0
1710812051796,1710812041806,2001962,0
1710812051796,1710812041845,1998738,0
1710812051796,1710812041886,1996152,0
1710812051796,1710812041926,1994864,0
1710812051796,1710812041966,1994477,0
1710812051796,1710812042007,1994916,0
1710812051796,1710812042046,1995553,0
1710812051796,1710812042086,1996072,0
1710812051796,1710812042126,1996448,0
1710812051796,1710812042167,1996645,0
1710812051796,1710812042207,1997222,0
1710812051796,1710812042247,1997978,0
1710812051796,1710812042287,1998891,0
1710812051796,1710812042327,2000103,0
1710812051796,1710812042367,2001381,0
1710812051796,1710812042408,2002581,0
1710812051796,1710812042447,2003668,0
1710812051796,1710812042487,2001811,0
1710812051796,1710812042528,1998293,0
1710812051796,1710812042568,1995076,0
1710812051796,1710812042609,1993423,0
1710812051796,1710812042648,1992878,0
1710812051796,1710812042688,1992949,0
1710812051796,1710812042728,1993409,0
1710812051796,1710812042769,1993618,0
1710812051796,1710812042809,1993521,0
1710812051796,1710812042849,1993205,0
1710812051796,1710812042889,1993351,0
1710812051796,1710812042929,1993719,0
1710812051796,1710812042969,1994598,0
1710812051796,1710812043010,1995619,0
1710812051796,1710812043049,1996814,0
1710812051796,1710812043090,1998014,0
1710812051796,1710812043130,1999502,0
1710812051796,1710812043170,1999868,0
1710812051796,1710812043211,1997012,0
1710812051796,1710812043250,1993308,0
1710812051796,1710812043290,1990405,0
1710812051796,1710812043330,1989136,0
1710812051796,1710812043371,1988706,0
1710812051796,1710812043411,1989102,0
1710812051796,1710812043451,1990045,0
1710812051796,1710812043491,1991275,0
1710812051796,1710812043531,1990356,0
1710812051796,1710812043571,1989181,0
1710812051796,1710812043612,1987695,0
1710812051796,1710812043651,1985433,0
1710812051796,1710812043692,1978357,0
1710812051796,1710812043732,1973015,0
1710812051796,1710812043772,1971421,0
1710812051796,1710812043813,1971545,0
1710812051796,1710812043852,1971905,0
1710812051796,1710812043892,1974118,0
1710812051796,1710812043932,1978139,0
1710812051796,1710812043973,1986554,0
1710812051796,1710812044013,1995875,0
1710812051796,1710812044053,2002927,0
1710812051796,1710812044093,2003515,0
1710812051796,1710812044133,2002819,0
1710812051796,1710812044173,2005196,0
1710812051796,1710812044214,2008084,0
1710812051796,1710812044253,2008456,0
1710812051796,1710812044293,2006283,0
1710812051796,1710812044334,2006500,0
1710812051796,1710812044374,2009653,0
1710812051796,1710812044414,2019271,0
1710812051796,1710812044454,2028196,0
1710812051796,1710812044494,2041374,0
1710812051796,1710812044534,2054299,0
1710812051796,1710812044574,2064398,0
1710812051796,1710812044615,2073237,0
1710812051796,1710812044654,2081932,0
1710812051796,1710812044694,2088419,0
1710812051796,1710812044735,2093114,0
1710812051796,1710812044775,2098411,0
1710812051796,1710812044816,2104386,0
1710812051796,1710812044855,2110796,0
1710812051796,1710812044895,2116998,0
1710812051796,1710812044935,2122603,0
1710812051796,1710812044975,2127890,0
1710812051796,1710812045016,2133053,0
1710812051796,1710812045055,2139188,0
1710812051796,1710812045095,2144357,0
1710812051796,1710812045136,2149370,0
1710812051796,1710812045176,2153917,0
1710812051796,1710812045216,2157245,0
1710812051796,1710812045256,2160711,0
1710812051796,1710812045296,2164039,0
1710812051796,1710812045336,2164446,0
1710812051796,1710812045376,2160846,0
1710812051796,1710812045417,2156406,0
1710812051796,1710812045456,2148690,0
1710812051796,1710812045496,2140695,0
1710812051796,1710812045537,2134385,0
1710812051796,1710812045576,2127851,0
1710812051796,1710812045617,2122242,0
1710812051796,1710812045657,2116154,0
1710812051796,1710812045697,2112188,0
1710812051796,1710812045737,2109026,0
1710812051796,1710812045777,2106716,0
1710812051796,1710812045818,2103992,0
1710812051796,1710812045857,2101509,0
1710812051796,1710812045897,2099296,0
1710812051796,1710812045937,2096232,0
1710812051796,1710812045978,2092655,0
1710812051796,1710812046018,2087977,0
1710812051796,1710812046058,2078981,0
1710812051796,1710812046098,2071292,0
1710812051796,1710812046138,2066427,0
1710812051796,1710812046178,2060314,0
1710812051796,1710812046219,2052494,0
1710812051796,1710812046258,2047617,0
1710812051796,1710812046298,2042563,0
1710812051796,1710812046338,2037280,0
1710812051796,1710812046379,2034088,0
1710812051796,1710812046419,2030762,0
1710812051796,1710812046459,2027210,0
1710812051796,1710812046499,2023062,0
1710812051796,1710812046539,2018924,0
1710812051796,1710812046579,2014781,0
1710812051796,1710812046620,2011292,0
1710812051796,1710812046659,2008363,0
1710812051796,1710812046699,2005765,0
1710812051796,1710812046739,2003424,0
1710812051796,1710812046779,2001531,0
1710812051796,1710812046820,1999637,0
1710812051796,1710812046860,1996576,0
1710812051796,1710812046900,1989702,0
1710812051796,1710812046940,1981237,0
1710812051796,1710812046980,1972825,0
1710812051796,1710812047021,1965921,0
1710812051796,1710812047060,1960086,0
1710812051796,1710812047100,1955311,0
1710812051796,1710812047140,1949857,0
1710812051796,1710812047180,1944785,0
1710812051796,1710812047221,1939714,0
1710812051796,1710812047261,1935224,0
1710812051796,1710812047301,1931771,0
1710812051796,1710812047341,1929267,0
1710812051796,1710812047381,1927602,0
1710812051796,1710812047422,1926138,0
1710812051796,1710812047461,1924852,0
1710812051796,1710812047501,1923566,0
1710812051796,1710812047542,1922433,0
1710812051796,1710812047582,1921383,0
1710812051796,1710812047623,1916860,0
1710812051796,1710812047662,1908438,0
1710812051796,1710812047702,1899408,0
1710812051796,1710812047742,1891594,0
1710812051796,1710812047782,1885260,0
1710812051796,1710812047823,1880304,0
1710812051796,1710812047862,1875908,0
1710812051796,1710812047905,1872292,0
1710812051796,1710812047943,1868488,0
1710812051796,1710812047983,1864157,0
1710812051796,1710812048024,1860764,0
1710812051796,1710812048063,1857906,0
1710812051796,1710812048103,1856198,0
1710812051796,1710812048143,1854831,0
1710812051796,1710812048183,1854125,0
1710812051796,1710812048224,1853975,0
1710812051796,1710812048264,1854452,0
1710812051796,1710812048304,1854785,0
1710812051796,1710812048344,1852416,0
1710812051796,1710812048384,1847924,0
1710812051796,1710812048425,1843063,0
1710812051796,1710812048464,1840136,0
1710812051796,1710812048504,1838174,0
1710812051796,1710812048545,1837161,0
1710812051796,1710812048584,1836954,0
1710812051796,1710812048625,1836441,0
1710812051796,1710812048665,1835202,0
1710812051796,1710812048705,1833871,0
1710812051796,1710812048745,1832917,0
1710812051796,1710812048785,1832559,0
1710812051796,1710812048826,1832649,0
1710812051796,1710812048865,1833048,0
1710812051796,1710812048905,1833883,0
1710812051796,1710812048945,1835070,0
1710812051796,1710812048986,1836187,0
1710812051796,1710812049027,1837522,0
1710812051796,1710812049066,1836689,0
1710812051796,1710812049106,1832072,0
1710812051796,1710812049146,1827149,0
1710812051796,1710812049186,1823659,0
1710812051796,1710812049227,1821595,0
1710812051796,1710812049267,1820491,0
1710812051796,1710812049307,1820429,0
1710812051796,1710812049347,1820411,0
1710812051796,1710812049387,1819992,0
1710812051796,1710812049428,1819308,0
1710812051796,1710812049467,1818859,0
1710812051796,1710812049507,1818903,0
1710812051796,1710812049547,1819567,0
1710812051796,1710812049588,1820659,0
1710812051796,1710812049628,1821881,0
1710812051796,1710812049668,1823179,0
1710812051796,1710812049708,1824757,0
1710812051796,1710812049748,1826515,0
1710812051796,1710812049788,1827784,0
1710812051796,1710812049829,1825726,0
1710812051796,1710812049869,1821600,0
1710812051796,1710812049909,1817867,0
1710812051796,1710812049949,1815776,0
1710812051796,1710812049989,1815155,0
1710812051796,1710812050030,1815569,0
1710812051796,1710812050069,1816374,0
1710812051796,1710812050112,1817292,0
1710812051796,1710812050149,1817421,0
1710812051796,1710812050189,1817652,0
1710812051796,1710812050230,1817991,0
1710812051796,1710812050270,1819075,0
1710812051796,1710812050310,1820539,0
1710812051796,1710812050350,1822376,0
1710812051796,1710812050390,1824469,0
1710812051796,1710812050431,1826829,0
1710812051796,1710812050471,1829079,0
1710812051796,1710812050511,1831271,0
1710812051796,1710812050551,1833406,0
1710812051796,1710812050591,1832123,0
1710812051796,1710812050632,1829023,0
1710812051796,1710812050671,1825982,0
1710812051796,1710812050711,1824547,0
1710812051796,1710812050751,1824244,0
1710812051796,1710812050792,1824829,0
1710812051796,1710812050832,1825809,0
1710812051796,1710812050872,1826659,0
1710812051796,1710812050912,1826935,0
1710812051796,1710812050952,1827030,0
1710812051796,1710812050992,1827575,0
1710812051796,1710812051033,1828778,0
1710812051796,1710812051073,1831781,0
1710812051796,1710812051113,1835214,0
1710812051796,1710812051153,1839363,0
1710812051796,1710812051193,1844196,0
1710812051796,1710812051234,1851403,0
1710812051796,1710812051273,1850620,0
1710812051796,1710812051313,1846584,0
1710812051796,1710812051353,1842496,0
1710812051796,1710812051393,1839627,0
1710812051796,1710812051434,1838167,0
1710812051796,1710812051473,1837660,0
1710812051796,1710812051513,1837918,0
1710812051796,1710812051554,1837911,0
1710812051796,1710812051593,1837650,0
1710812051796,1710812051634,1837128,0
1710812051796,1710812051674,1836915,0
1710812051796,1710812051714,1837175,0
1710812063831,1710812051754,1837970,0
1710812063831,1710812051794,1838938,0
1710812063831,1710812051835,1840141,0
1710812063831,1710812051874,1841433,0
1710812063831,1710812051914,1842460,0
1710812063831,1710812051954,1844117,0
1710812063831,1710812051994,1844177,0
1710812063831,1710812052035,1841024,0
1710812063831,1710812052075,1837265,0
1710812063831,1710812052115,1834577,0
1710812063831,1710812052155,1833085,0
1710812063831,1710812052195,1832548,0
1710812063831,1710812052236,1832821,0
1710812063831,1710812052275,1833175,0
1710812063831,1710812052315,1833334,0
1710812063831,1710812052355,1833097,0
1710812063831,1710812052396,1832989,0
1710812063831,1710812052436,1833492,0
1710812063831,1710812052476,1834267,0
1710812063831,1710812052516,1835456,0
1710812063831,1710812052556,1836811,0
1710812063831,1710812052596,1838283,0
1710812063831,1710812052637,1839835,0
1710812063831,1710812052676,1841393,0
1710812063831,1710812052716,1842875,0
1710812063831,1710812052756,1841369,0
1710812063831,1710812052796,1837835,0
1710812063831,1710812052837,1834808,0
1710812063831,1710812052877,1833193,0
1710812063831,1710812052917,1832384,0
1710812063831,1710812052957,1832425,0
1710812063831,1710812052997,1832966,0
1710812063831,1710812053038,1833316,0
1710812063831,1710812053077,1833174,0
1710812063831,1710812053117,1833098,0
1710812063831,1710812053157,1833352,0
1710812063831,1710812053197,1834023,0
1710812063831,1710812053238,1834981,0
1710812063831,1710812053278,1836379,0
1710812063831,1710812053318,1837806,0
1710812063831,1710812053358,1839328,0
1710812063831,1710812053398,1840932,0
1710812063831,1710812053439,1842519,0
1710812063831,1710812053478,1843911,0
1710812063831,1710812053518,1842220,0
1710812063831,1710812053558,1838850,0
1710812063831,1710812053598,1836175,0
1710812063831,1710812053639,1834622,0
1710812063831,1710812053679,1834090,0
1710812063831,1710812053719,1834305,0
1710812063831,1710812053759,1834786,0
1710812063831,1710812053799,1835092,0
1710812063831,1710812053840,1835011,0
1710812063831,1710812053879,1834738,0
1710812063831,1710812053919,1835068,0
1710812063831,1710812053959,1835696,0
1710812063831,1710812053999,1836742,0
1710812063831,1710812054040,1837993,0
1710812063831,1710812054080,1839395,0
1710812063831,1710812054120,1840742,0
1710812063831,1710812054160,1842314,0
1710812063831,1710812054200,1843836,0
1710812063831,1710812054241,1843940,0
1710812063831,1710812054280,1841169,0
1710812063831,1710812054320,1838133,0
1710812063831,1710812054360,1836148,0
1710812063831,1710812054400,1835303,0
1710812063831,1710812054441,1835479,0
1710812063831,1710812054481,1836042,0
1710812063831,1710812054521,1836792,0
1710812063831,1710812054561,1836916,0
1710812063831,1710812054601,1836736,0
1710812063831,1710812054642,1836992,0
1710812063831,1710812054681,1837576,0
1710812063831,1710812054721,1838713,0
1710812063831,1710812054761,1840040,0
1710812063831,1710812054802,1841664,0
1710812063831,1710812054842,1843316,0
1710812063831,1710812054882,1844912,0
1710812063831,1710812054922,1846600,0
1710812063831,1710812054962,1848443,0
1710812063831,1710812055002,1848226,0
1710812063831,1710812055043,1845529,0
1710812063831,1710812055082,1842465,0
1710812063831,1710812055122,1840654,0
1710812063831,1710812055162,1839828,0
1710812063831,1710812055202,1839790,0
1710812063831,1710812055243,1840281,0
1710812063831,1710812055283,1840660,0
1710812063831,1710812055323,1840969,0
1710812063831,1710812055363,1840695,0
1710812063831,1710812055403,1841067,0
1710812063831,1710812055444,1841783,0
1710812063831,1710812055483,1842766,0
1710812063831,1710812055524,1844107,0
1710812063831,1710812055564,1845494,0
1710812063831,1710812055604,1847180,0
1710812063831,1710812055645,1848785,0
1710812063831,1710812055684,1850400,0
1710812063831,1710812055724,1852100,0
1710812063831,1710812055764,1853248,0
1710812063831,1710812055804,1851600,0
1710812063831,1710812055845,1848625,0
1710812063831,1710812055885,1846363,0
1710812063831,1710812055925,1845219,0
1710812063831,1710812055965,1845007,0
1710812063831,1710812056005,1845308,0
1710812063831,1710812056046,1845927,0
1710812063831,1710812056085,1846232,0
1710812063831,1710812056125,1846251,0
1710812063831,1710812056165,1846388,0
1710812063831,1710812056205,1846811,0
1710812063831,1710812056246,1847924,0
1710812063831,1710812056286,1849134,0
1710812063831,1710812056326,1850618,0
1710812063831,1710812056366,1852206,0
1710812063831,1710812056406,1853635,0
1710812063831,1710812056447,1854720,0
1710812063831,1710812056486,1854925,0
1710812063831,1710812056526,1855494,0
1710812063831,1710812056567,1856179,0
1710812063831,1710812056607,1853968,0
1710812063831,1710812056648,1850225,0
1710812063831,1710812056687,1846919,0
1710812063831,1710812056727,1845285,0
1710812063831,1710812056767,1844531,0
1710812063831,1710812056807,1844804,0
1710812063831,1710812056848,1845475,0
1710812063831,1710812056888,1845868,0
1710812063831,1710812056928,1846352,0
1710812063831,1710812056968,1847094,0
1710812063831,1710812057008,1848618,0
1710812063831,1710812057049,1850662,0
1710812063831,1710812057088,1853423,0
1710812063831,1710812057128,1856813,0
1710812063831,1710812057168,1859963,0
1710812063831,1710812057209,1862770,0
1710812063831,1710812057249,1865001,0
1710812063831,1710812057289,1867251,0
1710812063831,1710812057329,1869334,0
1710812063831,1710812057369,1871279,0
1710812063831,1710812057409,1870957,0
1710812063831,1710812057450,1868653,0
1710812063831,1710812057489,1866678,0
1710812063831,1710812057530,1865821,0
1710812063831,1710812057570,1865682,0
1710812063831,1710812057610,1866276,0
1710812063831,1710812057651,1867376,0
1710812063831,1710812057690,1868130,0
1710812063831,1710812057730,1868158,0
1710812063831,1710812057770,1868098,0
1710812063831,1710812057811,1868442,0
1710812063831,1710812057851,1869017,0
1710812063831,1710812057891,1869786,0
1710812063831,1710812057931,1870934,0
1710812063831,1710812057971,1872471,0
1710812063831,1710812058011,1874060,0
1710812063831,1710812058052,1875597,0
1710812063831,1710812058092,1877099,0
1710812063831,1710812058132,1878790,0
1710812063831,1710812058172,1880609,0
1710812063831,1710812058212,1880320,0
1710812063831,1710812058253,1878487,0
1710812063831,1710812058292,1877300,0
1710812063831,1710812058332,1876985,0
1710812063831,1710812058372,1877780,0
1710812063831,1710812058412,1879361,0
1710812063831,1710812058453,1880728,0
1710812063831,1710812058493,1881926,0
1710812063831,1710812058533,1882003,0
1710812063831,1710812058573,1881734,0
1710812063831,1710812058613,1880917,0
1710812063831,1710812058654,1879922,0
1710812063831,1710812058693,1880211,0
1710812063831,1710812058733,1881246,0
1710812063831,1710812058773,1882177,0
1710812063831,1710812058813,1883722,0
1710812063831,1710812058854,1884651,0
1710812063831,1710812058893,1886641,0
1710812063831,1710812058933,1887391,0
1710812063831,1710812058973,1886893,0
1710812063831,1710812059014,1885420,0
1710812063831,1710812059054,1882662,0
1710812063831,1710812059094,1879939,0
1710812063831,1710812059134,1878704,0
1710812063831,1710812059174,1879034,0
1710812063831,1710812059214,1882180,0
1710812063831,1710812059255,1887251,0
1710812063831,1710812059294,1890033,0
1710812063831,1710812059334,1889416,0
1710812063831,1710812059374,1888600,0
1710812063831,1710812059414,1888215,0
1710812063831,1710812059455,1888357,0
1710812063831,1710812059495,1891570,0
1710812063831,1710812059535,1899354,0
1710812063831,1710812059575,1903802,0
1710812063831,1710812059615,1906313,0
1710812063831,1710812059656,1910873,0
1710812063831,1710812059695,1917596,0
1710812063831,1710812059735,1923366,0
1710812063831,1710812059775,1927352,0
1710812063831,1710812059815,1929663,0
1710812063831,1710812059856,1931573,0
1710812063831,1710812059895,1933750,0
1710812063831,1710812059935,1936580,0
1710812063831,1710812059976,1939297,0
1710812063831,1710812060016,1942671,0
1710812063831,1710812060056,1946122,0
1710812063831,1710812060096,1948492,0
1710812063831,1710812060136,1950429,0
1710812063831,1710812060176,1952273,0
1710812063831,1710812060216,1954287,0
1710812063831,1710812060257,1956670,0
1710812063831,1710812060296,1958945,0
1710812063831,1710812060336,1961691,0
1710812063831,1710812060376,1964312,0
1710812063831,1710812060417,1966777,0
1710812063831,1710812060457,1969203,0
1710812063831,1710812060497,1969960,0
1710812063831,1710812060537,1968677,0
1710812063831,1710812060577,1967499,0
1710812063831,1710812060617,1966608,0
1710812063831,1710812060658,1966630,0
1710812063831,1710812060697,1967559,0
1710812063831,1710812060737,1968723,0
1710812063831,1710812060777,1970011,0
1710812063831,1710812060818,1970732,0
1710812063831,1710812060858,1971197,0
1710812063831,1710812060898,1972090,0
1710812063831,1710812060938,1973255,0
1710812063831,1710812060978,1974782,0
1710812063831,1710812061018,1976629,0
1710812063831,1710812061059,1978671,0
1710812063831,1710812061098,1980518,0
1710812063831,1710812061138,1982518,0
1710812063831,1710812061178,1984450,0
1710812063831,1710812061218,1985787,0
1710812063831,1710812061259,1984609,0
1710812063831,1710812061299,1982375,0
1710812063831,1710812061339,1980826,0
1710812063831,1710812061379,1979746,0
1710812063831,1710812061419,1979497,0
1710812063831,1710812061460,1979518,0
1710812063831,1710812061499,1979941,0
1710812063831,1710812061539,1980367,0
1710812063831,1710812061579,1980495,0
1710812063831,1710812061620,1980974,0
1710812063831,1710812061661,1982716,0
1710812063831,1710812061700,1984425,0
1710812063831,1710812061740,1984820,0
1710812063831,1710812061780,1985907,0
1710812063831,1710812061820,1986989,0
1710812063831,1710812061861,1986987,0
1710812063831,1710812061900,1987020,0
1710812063831,1710812061940,1987759,0
1710812063831,1710812061981,1987595,0
1710812063831,1710812062021,1985172,0
1710812063831,1710812062062,1982696,0
1710812063831,1710812062101,1981140,0
1710812063831,1710812062141,1980553,0
1710812063831,1710812062181,1980809,0
1710812063831,1710812062221,1981306,0
1710812063831,1710812062262,1981836,0
1710812063831,1710812062301,1982468,0
1710812063831,1710812062342,1982773,0
1710812063831,1710812062382,1983109,0
1710812063831,1710812062422,1983749,0
1710812063831,1710812062463,1984764,0
1710812063831,1710812062502,1986275,0
1710812063831,1710812062542,1987850,0
1710812063831,1710812062582,1989561,0
1710812063831,1710812062622,1991350,0
1710812063831,1710812062663,1993200,0
1710812063831,1710812062703,1994897,0
1710812063831,1710812062743,1996415,0
1710812063831,1710812062783,1995618,0
1710812063831,1710812062823,1993616,0
1710812063831,1710812062864,1991852,0
1710812063831,1710812062903,1991389,0
1710812063831,1710812062943,1991558,0
1710812063831,1710812062984,1992108,0
1710812063831,1710812063024,1993212,0
1710812063831,1710812063064,1993990,0
1710812063831,1710812063104,1994302,0
1710812063831,1710812063144,1994644,0
1710812063831,1710812063184,1995209,0
1710812063831,1710812063224,1996276,0
1710812063831,1710812063265,1997253,0
1710812063831,1710812063305,1998564,0
1710812063831,1710812063345,2000078,0
1710812063831,1710812063385,2001559,0
1710812063831,1710812063425,2003016,0
1710812063831,1710812063466,2004353,0
1710812063831,1710812063505,2005014,0
1710812063831,1710812063546,2003217,0
1710812063831,1710812063586,2001303,0
1710812063831,1710812063626,2000180,0
1710812063831,1710812063667,2000125,0
1710812063831,1710812063706,2000562,0
1710812063831,1710812063746,2001691,0
1710812075863,1710812063785,2002643,0
1710812075863,1710812063826,2003440,0
1710812075863,1710812063866,2003604,0
1710812075863,1710812063906,2004249,0
1710812075863,1710812063946,2005099,0
1710812075863,1710812063986,2006050,0
1710812075863,1710812064026,2007417,0
1710812075863,1710812064067,2008920,0
1710812075863,1710812064106,2010477,0
1710812075863,1710812064146,2012143,0
1710812075863,1710812064187,2013751,0
1710812075863,1710812064227,2013908,0
1710812075863,1710812064268,2011959,0
1710812075863,1710812064307,2010201,0
1710812075863,1710812064347,2009355,0
1710812075863,1710812064387,2009404,0
1710812075863,1710812064428,2010246,0
1710812075863,1710812064468,2011405,0
1710812075863,1710812064508,2012559,0
1710812075863,1710812064548,2013235,0
1710812075863,1710812064588,2013747,0
1710812075863,1710812064628,2014233,0
1710812075863,1710812064669,2014994,0
1710812075863,1710812064708,2016175,0
1710812075863,1710812064749,2017415,0
1710812075863,1710812064789,2018922,0
1710812075863,1710812064829,2020478,0
1710812075863,1710812064870,2022014,0
1710812075863,1710812064909,2023384,0
1710812075863,1710812064949,2024443,0
1710812075863,1710812064989,2022735,0
1710812075863,1710812065030,2020621,0
1710812075863,1710812065070,2019065,0
1710812075863,1710812065110,2018507,0
1710812075863,1710812065150,2018567,0
1710812075863,1710812065190,2019090,0
1710812075863,1710812065230,2019905,0
1710812075863,1710812065271,2020584,0
1710812075863,1710812065311,2020678,0
1710812075863,1710812065351,2020978,0
1710812075863,1710812065391,2022407,0
1710812075863,1710812065431,2023659,0
1710812075863,1710812065472,2024828,0
1710812075863,1710812065511,2026224,0
1710812075863,1710812065551,2027635,0
1710812075863,1710812065591,2029053,0
1710812075863,1710812065631,2030608,0
1710812075863,1710812065672,2031405,0
1710812075863,1710812065711,2029725,0
1710812075863,1710812065751,2027490,0
1710812075863,1710812065792,2025958,0
1710812075863,1710812065832,2025308,0
1710812075863,1710812065873,2025497,0
1710812075863,1710812065912,2025895,0
1710812075863,1710812065952,2026646,0
1710812075863,1710812065992,2027092,0
1710812075863,1710812066032,2027429,0
1710812075863,1710812066073,2027469,0
1710812075863,1710812066112,2027986,0
1710812075863,1710812066152,2028749,0
1710812075863,1710812066192,2029874,0
1710812075863,1710812066233,2031042,0
1710812075863,1710812066273,2032189,0
1710812075863,1710812066313,2033611,0
1710812075863,1710812066353,2034932,0
1710812075863,1710812066393,2036239,0
1710812075863,1710812066433,2037631,0
1710812075863,1710812066474,2038499,0
1710812075863,1710812066513,2036821,0
1710812075863,1710812066553,2034550,0
1710812075863,1710812066594,2033034,0
1710812075863,1710812066634,2032557,0
1710812075863,1710812066674,2032765,0
1710812075863,1710812066714,2033371,0
1710812075863,1710812066754,2034216,0
1710812075863,1710812066794,2034790,0
1710812075863,1710812066834,2035020,0
1710812075863,1710812066875,2035527,0
1710812075863,1710812066914,2036112,0
1710812075863,1710812066954,2036950,0
1710812075863,1710812066994,2038216,0
1710812075863,1710812067035,2039434,0
1710812075863,1710812067075,2040858,0
1710812075863,1710812067115,2042233,0
1710812075863,1710812067155,2043657,0
1710812075863,1710812067195,2044909,0
1710812075863,1710812067235,2046432,0
1710812075863,1710812067276,2047926,0
1710812075863,1710812067315,2047854,0
1710812075863,1710812067355,2045923,0
1710812075863,1710812067395,2043953,0
1710812075863,1710812067436,2042926,0
1710812075863,1710812067476,2042704,0
1710812075863,1710812067516,2043311,0
1710812075863,1710812067556,2044045,0
1710812075863,1710812067596,2044876,0
1710812075863,1710812067636,2045189,0
1710812075863,1710812067677,2045410,0
1710812075863,1710812067716,2045646,0
1710812075863,1710812067756,2046300,0
1710812075863,1710812067797,2047126,0
1710812075863,1710812067836,2048178,0
1710812075863,1710812067877,2049457,0
1710812075863,1710812067917,2050724,0
1710812075863,1710812067957,2052031,0
1710812075863,1710812067997,2053364,0
1710812075863,1710812068037,2054555,0
1710812075863,1710812068078,2055947,0
1710812075863,1710812068117,2056955,0
1710812075863,1710812068157,2055641,0
1710812075863,1710812068197,2053495,0
1710812075863,1710812068237,2051820,0
1710812075863,1710812068278,2051104,0
1710812075863,1710812068318,2051244,0
1710812075863,1710812068358,2051792,0
1710812075863,1710812068398,2052647,0
1710812075863,1710812068438,2053118,0
1710812075863,1710812068479,2053260,0
1710812075863,1710812068518,2053217,0
1710812075863,1710812068558,2053531,0
1710812075863,1710812068598,2053964,0
1710812075863,1710812068639,2054665,0
1710812075863,1710812068679,2055539,0
1710812075863,1710812068719,2056508,0
1710812075863,1710812068759,2057582,0
1710812075863,1710812068799,2058668,0
1710812075863,1710812068839,2059597,0
1710812075863,1710812068880,2060873,0
1710812075863,1710812068919,2061291,0
1710812075863,1710812068959,2059741,0
1710812075863,1710812068999,2057606,0
1710812075863,1710812069039,2055829,0
1710812075863,1710812069080,2055066,0
1710812075863,1710812069120,2055155,0
1710812075863,1710812069160,2055593,0
1710812075863,1710812069200,2056222,0
1710812075863,1710812069240,2056640,0
1710812075863,1710812069281,2056669,0
1710812075863,1710812069320,2056601,0
1710812075863,1710812069360,2056566,0
1710812075863,1710812069400,2056883,0
1710812075863,1710812069441,2057571,0
1710812075863,1710812069481,2058338,0
1710812075863,1710812069521,2059290,0
1710812075863,1710812069561,2060258,0
1710812075863,1710812069601,2061201,0
1710812075863,1710812069641,2062148,0
1710812075863,1710812069682,2061577,0
1710812075863,1710812069721,2059224,0
1710812075863,1710812069761,2056675,0
1710812075863,1710812069801,2055246,0
1710812075863,1710812069842,2054524,0
1710812075863,1710812069882,2054677,0
1710812075863,1710812069922,2055107,0
1710812075863,1710812069962,2055489,0
1710812075863,1710812070002,2055466,0
1710812075863,1710812070042,2055048,0
1710812075863,1710812070083,2055048,0
1710812075863,1710812070122,2055245,0
1710812075863,1710812070162,2055763,0
1710812075863,1710812070203,2056695,0
1710812075863,1710812070243,2057522,0
1710812075863,1710812070283,2058383,0
1710812075863,1710812070323,2059455,0
1710812075863,1710812070363,2060286,0
1710812075863,1710812070403,2059010,0
1710812075863,1710812070443,2056149,0
1710812075863,1710812070484,2053406,0
1710812075863,1710812070524,2051865,0
1710812075863,1710812070564,2051220,0
1710812075863,1710812070604,2051374,0
1710812075863,1710812070644,2051852,0
1710812075863,1710812070685,2051976,0
1710812075863,1710812070724,2051714,0
1710812075863,1710812070764,2051272,0
1710812075863,1710812070804,2051142,0
1710812075863,1710812070844,2051587,0
1710812075863,1710812070885,2052081,0
1710812075863,1710812070925,2052932,0
1710812075863,1710812070965,2053957,0
1710812075863,1710812071005,2054871,0
1710812075863,1710812071045,2055918,0
1710812075863,1710812071086,2057000,0
1710812075863,1710812071125,2056048,0
1710812075863,1710812071165,2052835,0
1710812075863,1710812071205,2049101,0
1710812075863,1710812071245,2046561,0
1710812075863,1710812071286,2045416,0
1710812075863,1710812071326,2044498,0
1710812075863,1710812071366,2044405,0
1710812075863,1710812071406,2044219,0
1710812075863,1710812071446,2043494,0
1710812075863,1710812071487,2042553,0
1710812075863,1710812071526,2042014,0
1710812075863,1710812071566,2041843,0
1710812075863,1710812071606,2041893,0
1710812075863,1710812071647,2042494,0
1710812075863,1710812071687,2043213,0
1710812075863,1710812071727,2044016,0
1710812075863,1710812071767,2044969,0
1710812075863,1710812071807,2045684,0
1710812075863,1710812071847,2046625,0
1710812075863,1710812071888,2046217,0
1710812075863,1710812071927,2042793,0
1710812075863,1710812071967,2038637,0
1710812075863,1710812072008,2035673,0
1710812075863,1710812072048,2033821,0
1710812075863,1710812072088,2032712,0
1710812075863,1710812072128,2032305,0
1710812075863,1710812072168,2031939,0
1710812075863,1710812072208,2031211,0
1710812075863,1710812072248,2030177,0
1710812075863,1710812072289,2029456,0
1710812075863,1710812072328,2028998,0
1710812075863,1710812072369,2029088,0
1710812075863,1710812072409,2029662,0
1710812075863,1710812072449,2030159,0
1710812075863,1710812072490,2030942,0
1710812075863,1710812072529,2031919,0
1710812075863,1710812072569,2032699,0
1710812075863,1710812072609,2033685,0
1710812075863,1710812072649,2034722,0
1710812075863,1710812072690,2035644,0
1710812075863,1710812072730,2035204,0
1710812075863,1710812072770,2031840,0
1710812075863,1710812072810,2028078,0
1710812075863,1710812072850,2025404,0
1710812075863,1710812072891,2023950,0
1710812075863,1710812072930,2022971,0
1710812075863,1710812072970,2022754,0
1710812075863,1710812073010,2022800,0
1710812075863,1710812073050,2022210,0
1710812075863,1710812073091,2021417,0
1710812075863,1710812073131,2020828,0
1710812075863,1710812073171,2020701,0
1710812075863,1710812073211,2020872,0
1710812075863,1710812073251,2021567,0
1710812075863,1710812073292,2022253,0
1710812075863,1710812073331,2023088,0
1710812075863,1710812073371,2023836,0
1710812075863,1710812073411,2025010,0
1710812075863,1710812073451,2025989,0
1710812075863,1710812073492,2027089,0
1710812075863,1710812073531,2028203,0
1710812075863,1710812073571,2029314,0
1710812075863,1710812073611,2027640,0
1710812075863,1710812073652,2024451,0
1710812075863,1710812073693,2021560,0
1710812075863,1710812073732,2019954,0
1710812075863,1710812073772,2019211,0
1710812075863,1710812073812,2019360,0
1710812075863,1710812073852,2019972,0
1710812075863,1710812073893,2019954,0
1710812075863,1710812073932,2019479,0
1710812075863,1710812073972,2018978,0
1710812075863,1710812074012,2019024,0
1710812075863,1710812074053,2019250,0
1710812075863,1710812074093,2019865,0
1710812075863,1710812074133,2020910,0
1710812075863,1710812074173,2021795,0
1710812075863,1710812074213,2022878,0
1710812075863,1710812074253,2024012,0
1710812075863,1710812074294,2025162,0
1710812075863,1710812074333,2026193,0
1710812075863,1710812074373,2027481,0
1710812075863,1710812074413,2027976,0
1710812075863,1710812074453,2025657,0
1710812075863,1710812074494,2022720,0
1710812075863,1710812074534,2020554,0
1710812075863,1710812074574,2019642,0
1710812075863,1710812074614,2019579,0
1710812075863,1710812074654,2020196,0
1710812075863,1710812074694,2020902,0
1710812075863,1710812074734,2021188,0
1710812075863,1710812074774,2021031,0
1710812075863,1710812074814,2020926,0
1710812075863,1710812074854,2021417,0
1710812075863,1710812074895,2022113,0
1710812075863,1710812074934,2023214,0
1710812075863,1710812074974,2024294,0
1710812075863,1710812075015,2025663,0
1710812075863,1710812075054,2027024,0
1710812075863,1710812075095,2028378,0
1710812075863,1710812075135,2029800,0
1710812075863,1710812075175,2031261,0
1710812075863,1710812075215,2031450,0
1710812075863,1710812075255,2029058,0
1710812075863,1710812075296,2026403,0
1710812075863,1710812075335,2024678,0
1710812075863,1710812075375,2024081,0
1710812075863,1710812075415,2024305,0
1710812075863,1710812075455,2025119,0
1710812075863,1710812075496,2025915,0
1710812075863,1710812075536,2026205,0
1710812075863,1710812075576,2026113,0
1710812075863,1710812075616,2026342,0
1710812075863,1710812075656,2026775,0
1710812075863,1710812075697,2027770,0
1710812075863,1710812075736,2028989,0
1710812075863,1710812075776,2030171,0
1710812087898,1710812075817,2031724,0
1710812087898,1710812075858,2033241,0
1710812087898,1710812075898,2034673,0
1710812087898,1710812075938,2036157,0
1710812087898,1710812075978,2037636,0
1710812087898,1710812076018,2038913,0
1710812087898,1710812076058,2037957,0
1710812087898,1710812076099,2035159,0
1710812087898,1710812076138,2032370,0
1710812087898,1710812076178,2030821,0
1710812087898,1710812076218,2030269,0
1710812087898,1710812076258,2030414,0
1710812087898,1710812076299,2030854,0
1710812087898,1710812076339,2031304,0
1710812087898,1710812076379,2031226,0
1710812087898,1710812076419,2031135,0
1710812087898,1710812076459,2031035,0
1710812087898,1710812076500,2031372,0
1710812087898,1710812076539,2032221,0
1710812087898,1710812076579,2033387,0
1710812087898,1710812076619,2034561,0
1710812087898,1710812076659,2035892,0
1710812087898,1710812076700,2037206,0
1710812087898,1710812076740,2038420,0
1710812087898,1710812076780,2039875,0
1710812087898,1710812076820,2041234,0
1710812087898,1710812076860,2042686,0
1710812087898,1710812076901,2043379,0
1710812087898,1710812076940,2041410,0
1710812087898,1710812076980,2038337,0
1710812087898,1710812077020,2036140,0
1710812087898,1710812077061,2035048,0
1710812087898,1710812077101,2034797,0
1710812087898,1710812077141,2035216,0
1710812087898,1710812077181,2035744,0
1710812087898,1710812077221,2035945,0
1710812087898,1710812077261,2035787,0
1710812087898,1710812077302,2035698,0
1710812087898,1710812077341,2035983,0
1710812087898,1710812077381,2036623,0
1710812087898,1710812077422,2037456,0
1710812087898,1710812077462,2038491,0
1710812087898,1710812077502,2039755,0
1710812087898,1710812077542,2041120,0
1710812087898,1710812077582,2042393,0
1710812087898,1710812077622,2043735,0
1710812087898,1710812077662,2045001,0
1710812087898,1710812077703,2046474,0
1710812087898,1710812077742,2047798,0
1710812087898,1710812077783,2047635,0
1710812087898,1710812077823,2045165,0
1710812087898,1710812077863,2042389,0
1710812087898,1710812077904,2040636,0
1710812087898,1710812077943,2039903,0
1710812087898,1710812077983,2039967,0
1710812087898,1710812078023,2040596,0
1710812087898,1710812078063,2041296,0
1710812087898,1710812078104,2041389,0
1710812087898,1710812078144,2041092,0
1710812087898,1710812078184,2041131,0
1710812087898,1710812078224,2041339,0
1710812087898,1710812078264,2042135,0
1710812087898,1710812078305,2042897,0
1710812087898,1710812078344,2043900,0
1710812087898,1710812078384,2045098,0
1710812087898,1710812078424,2046140,0
1710812087898,1710812078464,2047523,0
1710812087898,1710812078505,2048739,0
1710812087898,1710812078545,2049866,0
1710812087898,1710812078585,2051230,0
1710812087898,1710812078625,2052458,0
1710812087898,1710812078665,2051653,0
1710812087898,1710812078706,2048985,0
1710812087898,1710812078745,2046522,0
1710812087898,1710812078785,2045140,0
1710812087898,1710812078825,2044727,0
1710812087898,1710812078866,2045110,0
1710812087898,1710812078906,2046007,0
1710812087898,1710812078946,2046473,0
1710812087898,1710812078986,2046512,0
1710812087898,1710812079026,2046383,0
1710812087898,1710812079066,2046240,0
1710812087898,1710812079107,2046425,0
1710812087898,1710812079146,2046889,0
1710812087898,1710812079186,2047882,0
1710812087898,1710812079227,2048805,0
1710812087898,1710812079267,2049981,0
1710812087898,1710812079308,2051017,0
1710812087898,1710812079347,2052301,0
1710812087898,1710812079387,2053562,0
1710812087898,1710812079427,2054907,0
1710812087898,1710812079467,2055436,0
1710812087898,1710812079508,2053546,0
1710812087898,1710812079548,2051029,0
1710812087898,1710812079588,2049119,0
1710812087898,1710812079628,2048364,0
1710812087898,1710812079668,2048334,0
1710812087898,1710812079709,2049178,0
1710812087898,1710812079748,2050015,0
1710812087898,1710812079788,2050489,0
1710812087898,1710812079829,2050522,0
1710812087898,1710812079869,2050668,0
1710812087898,1710812079909,2050915,0
1710812087898,1710812079949,2051626,0
1710812087898,1710812079989,2052484,0
1710812087898,1710812080029,2053727,0
1710812087898,1710812080069,2054980,0
1710812087898,1710812080110,2056295,0
1710812087898,1710812080149,2057673,0
1710812087898,1710812080190,2058941,0
1710812087898,1710812080230,2060289,0
1710812087898,1710812080270,2060963,0
1710812087898,1710812080311,2058593,0
1710812087898,1710812080350,2055355,0
1710812087898,1710812080390,2052554,0
1710812087898,1710812080430,2051235,0
1710812087898,1710812080470,2050997,0
1710812087898,1710812080511,2051259,0
1710812087898,1710812080551,2051494,0
1710812087898,1710812080591,2051113,0
1710812087898,1710812080631,2050553,0
1710812087898,1710812080671,2050434,0
1710812087898,1710812080712,2050803,0
1710812087898,1710812080751,2051333,0
1710812087898,1710812080791,2052244,0
1710812087898,1710812080831,2053304,0
1710812087898,1710812080871,2054437,0
1710812087898,1710812080912,2055580,0
1710812087898,1710812080951,2056671,0
1710812087898,1710812080991,2057780,0
1710812087898,1710812081032,2059011,0
1710812087898,1710812081072,2058783,0
1710812087898,1710812081112,2055582,0
1710812087898,1710812081152,2051702,0
1710812087898,1710812081192,2049106,0
1710812087898,1710812081232,2047594,0
1710812087898,1710812081272,2046928,0
1710812087898,1710812081313,2046942,0
1710812087898,1710812081352,2047075,0
1710812087898,1710812081392,2046695,0
1710812087898,1710812081432,2046044,0
1710812087898,1710812081472,2045509,0
1710812087898,1710812081513,2045265,0
1710812087898,1710812081553,2045549,0
1710812087898,1710812081593,2046228,0
1710812087898,1710812081633,2046939,0
1710812087898,1710812081673,2047850,0
1710812087898,1710812081714,2049010,0
1710812087898,1710812081753,2049979,0
1710812087898,1710812081793,2051155,0
1710812087898,1710812081833,2052204,0
1710812087898,1710812081874,2050708,0
1710812087898,1710812081914,2047080,0
1710812087898,1710812081954,2043345,0
1710812087898,1710812081994,2040916,0
1710812087898,1710812082034,2039757,0
1710812087898,1710812082074,2039455,0
1710812087898,1710812082115,2039646,0
1710812087898,1710812082154,2039707,0
1710812087898,1710812082194,2039223,0
1710812087898,1710812082234,2038430,0
1710812087898,1710812082274,2038025,0
1710812087898,1710812082315,2038004,0
1710812087898,1710812082355,2038215,0
1710812087898,1710812082395,2038872,0
1710812087898,1710812082435,2039721,0
1710812087898,1710812082475,2040792,0
1710812087898,1710812082516,2041610,0
1710812087898,1710812082555,2042762,0
1710812087898,1710812082595,2043304,0
1710812087898,1710812082635,2040935,0
1710812087898,1710812082675,2037068,0
1710812087898,1710812082716,2033615,0
1710812087898,1710812082755,2031653,0
1710812087898,1710812082796,2030747,0
1710812087898,1710812082836,2030778,0
1710812087898,1710812082876,2031202,0
1710812087898,1710812082917,2031096,0
1710812087898,1710812082956,2030666,0
1710812087898,1710812082996,2029787,0
1710812087898,1710812083036,2029407,0
1710812087898,1710812083076,2029414,0
1710812087898,1710812083117,2029965,0
1710812087898,1710812083156,2030734,0
1710812087898,1710812083197,2031626,0
1710812087898,1710812083237,2032558,0
1710812087898,1710812083277,2033488,0
1710812087898,1710812083318,2034659,0
1710812087898,1710812083357,2033363,0
1710812087898,1710812083397,2029704,0
1710812087898,1710812083437,2026087,0
1710812087898,1710812083477,2023886,0
1710812087898,1710812083518,2022735,0
1710812087898,1710812083558,2022749,0
1710812087898,1710812083598,2023172,0
1710812087898,1710812083638,2023297,0
1710812087898,1710812083678,2022955,0
1710812087898,1710812083718,2022247,0
1710812087898,1710812083758,2021780,0
1710812087898,1710812083798,2021862,0
1710812087898,1710812083838,2022414,0
1710812087898,1710812083878,2023275,0
1710812087898,1710812083919,2024424,0
1710812087898,1710812083958,2025361,0
1710812087898,1710812083999,2026564,0
1710812087898,1710812084039,2027915,0
1710812087898,1710812084079,2026402,0
1710812087898,1710812084119,2022778,0
1710812087898,1710812084159,2019052,0
1710812087898,1710812084199,2016645,0
1710812087898,1710812084239,2015619,0
1710812087898,1710812084279,2015509,0
1710812087898,1710812084320,2016054,0
1710812087898,1710812084360,2016241,0
1710812087898,1710812084400,2015902,0
1710812087898,1710812084440,2015269,0
1710812087898,1710812084480,2014948,0
1710812087898,1710812084521,2015219,0
1710812087898,1710812084560,2015761,0
1710812087898,1710812084600,2016715,0
1710812087898,1710812084640,2017953,0
1710812087898,1710812084680,2019092,0
1710812087898,1710812084721,2020449,0
1710812087898,1710812084761,2021765,0
1710812087898,1710812084801,2021787,0
1710812087898,1710812084841,2018195,0
1710812087898,1710812084881,2013578,0
1710812087898,1710812084922,2010036,0
1710812087898,1710812084961,2007976,0
1710812087898,1710812085001,2007056,0
1710812087898,1710812085041,2006900,0
1710812087898,1710812085082,2006825,0
1710812087898,1710812085122,2006503,0
1710812087898,1710812085162,2005575,0
1710812087898,1710812085202,2004911,0
1710812087898,1710812085242,2004682,0
1710812087898,1710812085282,2005104,0
1710812087898,1710812085323,2005790,0
1710812087898,1710812085362,2006760,0
1710812087898,1710812085402,2007887,0
1710812087898,1710812085443,2009081,0
1710812087898,1710812085483,2010183,0
1710812087898,1710812085523,2011595,0
1710812087898,1710812085563,2012474,0
1710812087898,1710812085603,2010123,0
1710812087898,1710812085643,2005468,0
1710812087898,1710812085683,2001271,0
1710812087898,1710812085724,1998574,0
1710812087898,1710812085763,1997310,0
1710812087898,1710812085804,1996783,0
1710812087898,1710812085844,1996679,0
1710812087898,1710812085884,1996491,0
1710812087898,1710812085925,1995873,0
1710812087898,1710812085964,1994996,0
1710812087898,1710812086004,1994687,0
1710812087898,1710812086044,1994904,0
1710812087898,1710812086085,1995587,0
1710812087898,1710812086125,1996730,0
1710812087898,1710812086165,1997857,0
1710812087898,1710812086205,1999263,0
1710812087898,1710812086245,2000624,0
1710812087898,1710812086285,2002008,0
1710812087898,1710812086326,2003524,0
1710812087898,1710812086365,2005013,0
1710812087898,1710812086405,2004694,0
1710812087898,1710812086446,2001075,0
1710812087898,1710812086486,1996719,0
1710812087898,1710812086526,1993757,0
1710812087898,1710812086566,1992322,0
1710812087898,1710812086606,1991819,0
1710812087898,1710812086646,1991883,0
1710812087898,1710812086686,1992077,0
1710812087898,1710812086727,1991996,0
1710812087898,1710812086766,1991375,0
1710812087898,1710812086806,1991091,0
1710812087898,1710812086846,1991385,0
1710812087898,1710812086887,1992060,0
1710812087898,1710812086928,1993206,0
1710812087898,1710812086967,1994482,0
1710812087898,1710812087007,1996043,0
1710812087898,1710812087047,1997583,0
1710812087898,1710812087087,1999227,0
1710812087898,1710812087128,2000972,0
1710812087898,1710812087168,2002549,0
1710812087898,1710812087208,2004254,0
1710812087898,1710812087248,2005459,0
1710812087898,1710812087288,2003315,0
1710812087898,1710812087329,1999428,0
1710812087898,1710812087368,1996401,0
1710812087898,1710812087409,1994863,0
1710812087898,1710812087449,1994590,0
1710812087898,1710812087489,1995034,0
1710812087898,1710812087530,1996010,0
1710812087898,1710812087569,1996226,0
1710812087898,1710812087609,1995945,0
1710812087898,1710812087650,1995832,0
1710812087898,1710812087690,1996077,0
1710812087898,1710812087730,1996714,0
1710812087898,1710812087770,1997686,0
1710812087898,1710812087810,1999076,0
1710812099928,1710812087850,2000440,0
1710812099928,1710812087890,2002208,0
1710812099928,1710812087931,2003882,0
1710812099928,1710812087970,2005391,0
1710812099928,1710812088010,2007186,0
1710812099928,1710812088050,2008713,0
1710812099928,1710812088090,2010664,0
1710812099928,1710812088131,2011831,0
1710812099928,1710812088170,2009806,0
1710812099928,1710812088211,2006728,0
1710812099928,1710812088251,2004226,0
1710812099928,1710812088291,2003352,0
1710812099928,1710812088332,2003387,0
1710812099928,1710812088371,2004364,0
1710812099928,1710812088411,2005525,0
1710812099928,1710812088451,2006277,0
1710812099928,1710812088491,2006305,0
1710812099928,1710812088532,2006241,0
1710812099928,1710812088571,2006766,0
1710812099928,1710812088612,2007490,0
1710812099928,1710812088652,2008539,0
1710812099928,1710812088692,2010008,0
1710812099928,1710812088733,2011599,0
1710812099928,1710812088772,2013168,0
1710812099928,1710812088812,2014808,0
1710812099928,1710812088852,2016319,0
1710812099928,1710812088892,2017927,0
1710812099928,1710812088933,2019632,0
1710812099928,1710812088972,2020310,0
1710812099928,1710812089012,2017895,0
1710812099928,1710812089053,2015215,0
1710812099928,1710812089093,2013064,0
1710812099928,1710812089133,2012187,0
1710812099928,1710812089173,2012493,0
1710812099928,1710812089213,2013400,0
1710812099928,1710812089253,2014525,0
1710812099928,1710812089293,2015234,0
1710812099928,1710812089334,2015237,0
1710812099928,1710812089373,2015505,0
1710812099928,1710812089413,2015778,0
1710812099928,1710812089454,2016637,0
1710812099928,1710812089494,2017810,0
1710812099928,1710812089534,2019193,0
1710812099928,1710812089574,2020627,0
1710812099928,1710812089614,2022189,0
1710812099928,1710812089654,2023736,0
1710812099928,1710812089694,2025477,0
1710812099928,1710812089735,2026824,0
1710812099928,1710812089774,2025337,0
1710812099928,1710812089814,2022363,0
1710812099928,1710812089854,2019813,0
1710812099928,1710812089895,2018249,0
1710812099928,1710812089935,2018022,0
1710812099928,1710812089975,2018620,0
1710812099928,1710812090015,2019683,0
1710812099928,1710812090055,2020436,0
1710812099928,1710812090095,2020513,0
1710812099928,1710812090136,2020435,0
1710812099928,1710812090175,2020331,0
1710812099928,1710812090215,2020967,0
1710812099928,1710812090255,2021904,0
1710812099928,1710812090296,2023113,0
1710812099928,1710812090336,2024473,0
1710812099928,1710812090376,2025774,0
1710812099928,1710812090416,2027181,0
1710812099928,1710812090456,2028762,0
1710812099928,1710812090496,2028723,0
1710812099928,1710812090537,2025724,0
1710812099928,1710812090576,2021971,0
1710812099928,1710812090616,2019205,0
1710812099928,1710812090656,2017932,0
1710812099928,1710812090696,2017581,0
1710812099928,1710812090737,2018088,0
1710812099928,1710812090777,2018488,0
1710812099928,1710812090817,2018375,0
1710812099928,1710812090857,2017717,0
1710812099928,1710812090897,2017296,0
1710812099928,1710812090938,2017333,0
1710812099928,1710812090977,2017869,0
1710812099928,1710812091017,2018780,0
1710812099928,1710812091057,2019876,0
1710812099928,1710812091097,2020843,0
1710812099928,1710812091138,2022087,0
1710812099928,1710812091178,2023437,0
1710812099928,1710812091218,2024463,0
1710812099928,1710812091258,2022622,0
1710812099928,1710812091298,2018048,0
1710812099928,1710812091339,2013391,0
1710812099928,1710812091378,2010199,0
1710812099928,1710812091418,2008295,0
1710812099928,1710812091458,2007266,0
1710812099928,1710812091498,2006906,0
1710812099928,1710812091539,2006189,0
1710812099928,1710812091579,2005103,0
1710812099928,1710812091619,2003825,0
1710812099928,1710812091659,2002878,0
1710812099928,1710812091699,2002615,0
1710812099928,1710812091740,2002741,0
1710812099928,1710812091779,2003265,0
1710812099928,1710812091819,2004107,0
1710812099928,1710812091859,2004777,0
1710812099928,1710812091899,2005843,0
1710812099928,1710812091940,2006635,0
1710812099928,1710812091980,2007637,0
1710812099928,1710812092020,2007186,0
1710812099928,1710812092060,2002693,0
1710812099928,1710812092100,1997219,0
1710812099928,1710812092141,1992963,0
1710812099928,1710812092180,1990275,0
1710812099928,1710812092220,1988523,0
1710812099928,1710812092260,1987563,0
1710812099928,1710812092301,1986810,0
1710812099928,1710812092341,1985574,0
1710812099928,1710812092381,1984176,0
1710812099928,1710812092421,1983135,0
1710812099928,1710812092461,1982396,0
1710812099928,1710812092501,1982654,0
1710812099928,1710812092542,1983152,0
1710812099928,1710812092581,1983993,0
1710812099928,1710812092621,1984841,0
1710812099928,1710812092662,1985745,0
1710812099928,1710812092702,1986689,0
1710812099928,1710812092742,1987727,0
1710812099928,1710812092782,1988870,0
1710812099928,1710812092822,1989916,0
1710812099928,1710812092862,1987823,0
1710812099928,1710812092902,1982803,0
1710812099928,1710812092943,1977818,0
1710812099928,1710812092982,1974456,0
1710812099928,1710812093023,1972543,0
1710812099928,1710812093063,1971253,0
1710812099928,1710812093103,1970724,0
1710812099928,1710812093144,1969811,0
1710812099928,1710812093183,1968634,0
1710812099928,1710812093223,1967399,0
1710812099928,1710812093263,1966623,0
1710812099928,1710812093304,1966500,0
1710812099928,1710812093344,1966995,0
1710812099928,1710812093384,1967751,0
1710812099928,1710812093424,1968592,0
1710812099928,1710812093464,1969629,0
1710812099928,1710812093504,1970642,0
1710812099928,1710812093545,1971873,0
1710812099928,1710812093584,1973135,0
1710812099928,1710812093624,1974413,0
1710812099928,1710812093665,1975939,0
1710812099928,1710812093705,1975179,0
1710812099928,1710812093745,1970799,0
1710812099928,1710812093785,1966177,0
1710812099928,1710812093825,1962896,0
1710812099928,1710812093865,1961262,0
1710812099928,1710812093905,1960528,0
1710812099928,1710812093946,1960395,0
1710812099928,1710812093986,1960159,0
1710812099928,1710812094026,1959334,0
1710812099928,1710812094066,1958298,0
1710812099928,1710812094106,1957866,0
1710812099928,1710812094147,1958047,0
1710812099928,1710812094186,1958570,0
1710812099928,1710812094226,1959758,0
1710812099928,1710812094267,1960948,0
1710812099928,1710812094307,1962275,0
1710812099928,1710812094347,1963668,0
1710812099928,1710812094387,1965108,0
1710812099928,1710812094427,1966658,0
1710812099928,1710812094467,1968166,0
1710812099928,1710812094507,1970023,0
1710812099928,1710812094548,1971629,0
1710812099928,1710812094587,1969804,0
1710812099928,1710812094628,1965522,0
1710812099928,1710812094668,1961737,0
1710812099928,1710812094708,1959569,0
1710812099928,1710812094749,1958740,0
1710812099928,1710812094788,1959002,0
1710812099928,1710812094828,1959521,0
1710812099928,1710812094869,1959394,0
1710812099928,1710812094909,1958900,0
1710812099928,1710812094949,1958529,0
1710812099928,1710812094989,1959296,0
1710812099928,1710812095029,1960505,0
1710812099928,1710812095069,1961960,0
1710812099928,1710812095109,1963586,0
1710812099928,1710812095150,1965194,0
1710812099928,1710812095189,1966737,0
1710812099928,1710812095229,1968430,0
1710812099928,1710812095269,1970123,0
1710812099928,1710812095309,1972029,0
1710812099928,1710812095350,1973923,0
1710812099928,1710812095390,1974876,0
1710812099928,1710812095430,1971927,0
1710812099928,1710812095470,1968168,0
1710812099928,1710812095510,1965588,0
1710812099928,1710812095551,1964533,0
1710812099928,1710812095590,1964624,0
1710812099928,1710812095630,1965402,0
1710812099928,1710812095670,1966285,0
1710812099928,1710812095710,1966261,0
1710812099928,1710812095751,1966005,0
1710812099928,1710812095791,1966056,0
1710812099928,1710812095831,1966617,0
1710812099928,1710812095871,1967774,0
1710812099928,1710812095911,1969133,0
1710812099928,1710812095952,1970826,0
1710812099928,1710812095991,1972518,0
1710812099928,1710812096031,1974136,0
1710812099928,1710812096071,1975825,0
1710812099928,1710812096111,1977569,0
1710812099928,1710812096152,1979478,0
1710812099928,1710812096192,1981350,0
1710812099928,1710812096231,1982921,0
1710812099928,1710812096272,1981327,0
1710812099928,1710812096312,1977852,0
1710812099928,1710812096353,1975140,0
1710812099928,1710812096392,1974025,0
1710812099928,1710812096432,1974038,0
1710812099928,1710812096472,1974885,0
1710812099928,1710812096512,1975983,0
1710812099928,1710812096553,1976638,0
1710812099928,1710812096592,1976555,0
1710812099928,1710812096632,1976567,0
1710812099928,1710812096673,1977080,0
1710812099928,1710812096713,1978014,0
1710812099928,1710812096753,1979444,0
1710812099928,1710812096793,1981115,0
1710812099928,1710812096833,1982712,0
1710812099928,1710812096873,1984426,0
1710812099928,1710812096913,1986410,0
1710812099928,1710812096954,1988103,0
1710812099928,1710812096993,1989786,0
1710812099928,1710812097033,1991768,0
1710812099928,1710812097073,1993264,0
1710812099928,1710812097114,1991329,0
1710812099928,1710812097155,1987957,0
1710812099928,1710812097194,1985327,0
1710812099928,1710812097234,1984150,0
1710812099928,1710812097274,1984111,0
1710812099928,1710812097314,1985126,0
1710812099928,1710812097355,1986323,0
1710812099928,1710812097394,1986829,0
1710812099928,1710812097434,1986792,0
1710812099928,1710812097474,1986893,0
1710812099928,1710812097515,1987230,0
1710812099928,1710812097555,1988318,0
1710812099928,1710812097595,1989729,0
1710812099928,1710812097635,1991280,0
1710812099928,1710812097675,1992974,0
1710812099928,1710812097715,1994814,0
1710812099928,1710812097756,1996719,0
1710812099928,1710812097795,1998468,0
1710812099928,1710812097835,2000136,0
1710812099928,1710812097875,2002007,0
1710812099928,1710812097915,2002408,0
1710812099928,1710812097956,1999037,0
1710812099928,1710812097996,1995000,0
1710812099928,1710812098036,1992160,0
1710812099928,1710812098076,1990967,0
1710812099928,1710812098116,1990688,0
1710812099928,1710812098157,1991173,0
1710812099928,1710812098196,1991723,0
1710812099928,1710812098236,1991665,0
1710812099928,1710812098276,1991195,0
1710812099928,1710812098316,1991006,0
1710812099928,1710812098357,1991263,0
1710812099928,1710812098397,1992194,0
1710812099928,1710812098437,1993333,0
1710812099928,1710812098477,1994779,0
1710812099928,1710812098517,1996241,0
1710812099928,1710812098558,1997839,0
1710812099928,1710812098597,1999378,0
1710812099928,1710812098637,2000960,0
1710812099928,1710812098677,2002486,0
1710812099928,1710812098718,2004129,0
1710812099928,1710812098758,2004461,0
1710812099928,1710812098798,2000606,0
1710812099928,1710812098838,1996113,0
1710812099928,1710812098878,1992741,0
1710812099928,1710812098918,1991136,0
1710812099928,1710812098959,1990527,0
1710812099928,1710812098998,1990570,0
1710812099928,1710812099038,1990695,0
1710812099928,1710812099079,1990389,0
1710812099928,1710812099119,1989481,0
1710812099928,1710812099160,1988979,0
1710812099928,1710812099199,1989051,0
1710812099928,1710812099239,1989584,0
1710812099928,1710812099279,1990434,0
1710812099928,1710812099319,1991634,0
1710812099928,1710812099360,1992965,0
1710812099928,1710812099399,1994409,0
1710812099928,1710812099440,1995769,0
1710812099928,1710812099480,1997117,0
1710812099928,1710812099520,1998646,0
1710812099928,1710812099561,2000232,0
1710812099928,1710812099600,2000657,0
1710812099928,1710812099640,1996954,0
1710812099928,1710812099680,1992181,0
1710812099928,1710812099720,1988589,0
1710812099928,1710812099761,1986821,0
1710812099928,1710812099801,1986081,0
1710812099928,1710812099841,1986299,0
1710812111974,1710812099881,1986501,0
1710812111974,1710812099921,1986196,0
1710812111974,1710812099962,1985109,0
1710812111974,1710812100001,1984508,0
1710812111974,1710812100041,1984292,0
1710812111974,1710812100081,1984781,0
1710812111974,1710812100122,1985696,0
1710812111974,1710812100163,1986901,0
1710812111974,1710812100202,1988148,0
1710812111974,1710812100242,1989544,0
1710812111974,1710812100282,1990791,0
1710812111974,1710812100322,1992226,0
1710812111974,1710812100363,1993659,0
1710812111974,1710812100403,1995182,0
1710812111974,1710812100443,1995833,0
1710812111974,1710812100483,1992221,0
1710812111974,1710812100523,1987354,0
1710812111974,1710812100564,1983818,0
1710812111974,1710812100603,1982053,0
1710812111974,1710812100643,1981397,0
1710812111974,1710812100683,1981724,0
1710812111974,1710812100723,1981915,0
1710812111974,1710812100764,1981508,0
1710812111974,1710812100804,1980448,0
1710812111974,1710812100844,1979706,0
1710812111974,1710812100884,1979557,0
1710812111974,1710812100924,1980142,0
1710812111974,1710812100965,1980992,0
1710812111974,1710812101005,1982249,0
1710812111974,1710812101045,1983522,0
1710812111974,1710812101085,1984979,0
1710812111974,1710812101125,1986274,0
1710812111974,1710812101166,1987613,0
1710812111974,1710812101205,1988997,0
1710812111974,1710812101245,1990490,0
1710812111974,1710812101286,1989538,0
1710812111974,1710812101326,1985032,0
1710812111974,1710812101367,1980258,0
1710812111974,1710812101406,1977329,0
1710812111974,1710812101446,1975895,0
1710812111974,1710812101486,1975646,0
1710812111974,1710812101526,1975895,0
1710812111974,1710812101567,1975763,0
1710812111974,1710812101607,1974861,0
1710812111974,1710812101647,1973821,0
1710812111974,1710812101687,1973146,0
1710812111974,1710812101727,1973204,0
1710812111974,1710812101768,1974014,0
1710812111974,1710812101808,1975078,0
1710812111974,1710812101848,1976192,0
1710812111974,1710812101888,1977374,0
1710812111974,1710812101928,1978817,0
1710812111974,1710812101969,1979982,0
1710812111974,1710812102008,1981341,0
1710812111974,1710812102048,1982676,0
1710812111974,1710812102088,1983846,0
1710812111974,1710812102128,1981259,0
1710812111974,1710812102169,1976302,0
1710812111974,1710812102209,1972060,0
1710812111974,1710812102249,1969706,0
1710812111974,1710812102289,1968693,0
1710812111974,1710812102329,1968849,0
1710812111974,1710812102369,1969026,0
1710812111974,1710812102409,1968456,0
1710812111974,1710812102449,1967474,0
1710812111974,1710812102489,1966568,0
1710812111974,1710812102529,1966206,0
1710812111974,1710812102570,1966574,0
1710812111974,1710812102609,1967367,0
1710812111974,1710812102649,1968525,0
1710812111974,1710812102690,1969716,0
1710812111974,1710812102729,1970819,0
1710812111974,1710812102770,1972038,0
1710812111974,1710812102810,1973302,0
1710812111974,1710812102850,1974485,0
1710812111974,1710812102890,1976115,0
1710812111974,1710812102930,1975378,0
1710812111974,1710812102971,1971186,0
1710812111974,1710812103010,1966749,0
1710812111974,1710812103050,1964028,0
1710812111974,1710812103090,1962775,0
1710812111974,1710812103130,1962626,0
1710812111974,1710812103171,1963259,0
1710812111974,1710812103210,1963150,0
1710812111974,1710812103251,1962262,0
1710812111974,1710812103291,1961310,0
1710812111974,1710812103331,1960906,0
1710812111974,1710812103371,1960932,0
1710812111974,1710812103411,1961689,0
1710812111974,1710812103451,1962737,0
1710812111974,1710812103491,1964082,0
1710812111974,1710812103531,1965209,0
1710812111974,1710812103572,1966448,0
1710812111974,1710812103611,1967827,0
1710812111974,1710812103651,1969216,0
1710812111974,1710812103691,1970529,0
1710812111974,1710812103731,1968849,0
1710812111974,1710812103772,1964277,0
1710812111974,1710812103812,1960095,0
1710812111974,1710812103852,1957711,0
1710812111974,1710812103892,1956807,0
1710812111974,1710812103932,1956889,0
1710812111974,1710812103973,1957448,0
1710812111974,1710812104012,1957525,0
1710812111974,1710812104052,1956652,0
1710812111974,1710812104092,1955917,0
1710812111974,1710812104132,1955718,0
1710812111974,1710812104173,1956185,0
1710812111974,1710812104213,1957239,0
1710812111974,1710812104253,1958654,0
1710812111974,1710812104293,1960187,0
1710812111974,1710812104333,1961725,0
1710812111974,1710812104374,1963211,0
1710812111974,1710812104413,1964735,0
1710812111974,1710812104453,1966463,0
1710812111974,1710812104493,1965413,0
1710812111974,1710812104533,1960748,0
1710812111974,1710812104574,1956115,0
1710812111974,1710812104614,1953332,0
1710812111974,1710812104654,1952095,0
1710812111974,1710812104694,1951727,0
1710812111974,1710812104734,1952098,0
1710812111974,1710812104775,1952317,0
1710812111974,1710812104814,1951725,0
1710812111974,1710812104854,1950868,0
1710812111974,1710812104894,1950751,0
1710812111974,1710812104934,1951314,0
1710812111974,1710812104975,1952374,0
1710812111974,1710812105014,1953693,0
1710812111974,1710812105055,1955254,0
1710812111974,1710812105095,1957045,0
1710812111974,1710812105135,1958747,0
1710812111974,1710812105176,1960360,0
1710812111974,1710812105215,1962206,0
1710812111974,1710812105255,1963036,0
1710812111974,1710812105295,1959369,0
1710812111974,1710812105335,1954018,0
1710812111974,1710812105376,1949775,0
1710812111974,1710812105415,1947671,0
1710812111974,1710812105456,1946498,0
1710812111974,1710812105496,1946273,0
1710812111974,1710812105536,1946270,0
1710812111974,1710812105577,1945849,0
1710812111974,1710812105616,1944988,0
1710812111974,1710812105656,1944393,0
1710812111974,1710812105696,1944447,0
1710812111974,1710812105736,1945208,0
1710812111974,1710812105777,1946414,0
1710812111974,1710812105817,1948040,0
1710812111974,1710812105857,1949734,0
1710812111974,1710812105897,1951465,0
1710812111974,1710812105937,1953246,0
1710812111974,1710812105978,1955021,0
1710812111974,1710812106017,1956867,0
1710812111974,1710812106057,1958959,0
1710812111974,1710812106097,1957708,0
1710812111974,1710812106137,1953001,0
1710812111974,1710812106178,1948418,0
1710812111974,1710812106218,1945795,0
1710812111974,1710812106258,1944691,0
1710812111974,1710812106298,1944381,0
1710812111974,1710812106338,1944755,0
1710812111974,1710812106379,1944844,0
1710812111974,1710812106418,1944531,0
1710812111974,1710812106458,1944009,0
1710812111974,1710812106498,1944020,0
1710812111974,1710812106539,1944770,0
1710812111974,1710812106579,1946006,0
1710812111974,1710812106619,1947662,0
1710812111974,1710812106659,1949506,0
1710812111974,1710812106699,1951275,0
1710812111974,1710812106739,1953122,0
1710812111974,1710812106780,1955085,0
1710812111974,1710812106819,1957080,0
1710812111974,1710812106859,1959153,0
1710812111974,1710812106900,1961299,0
1710812111974,1710812106940,1961197,0
1710812111974,1710812106980,1957236,0
1710812111974,1710812107020,1953040,0
1710812111974,1710812107060,1950664,0
1710812111974,1710812107100,1949772,0
1710812111974,1710812107140,1949949,0
1710812111974,1710812107181,1950748,0
1710812111974,1710812107221,1951292,0
1710812111974,1710812107261,1951291,0
1710812111974,1710812107301,1950988,0
1710812111974,1710812107341,1951234,0
1710812111974,1710812107382,1952078,0
1710812111974,1710812107421,1953364,0
1710812111974,1710812107461,1955245,0
1710812111974,1710812107502,1957080,0
1710812111974,1710812107542,1959040,0
1710812111974,1710812107582,1960849,0
1710812111974,1710812107622,1962960,0
1710812111974,1710812107662,1965128,0
1710812111974,1710812107702,1967140,0
1710812111974,1710812107742,1969301,0
1710812111974,1710812107783,1970738,0
1710812111974,1710812107823,1967963,0
1710812111974,1710812107863,1964309,0
1710812111974,1710812107903,1961705,0
1710812111974,1710812107943,1960890,0
1710812111974,1710812107984,1961237,0
1710812111974,1710812108023,1962188,0
1710812111974,1710812108066,1963363,0
1710812111974,1710812108103,1963851,0
1710812111974,1710812108144,1963889,0
1710812111974,1710812108184,1964119,0
1710812111974,1710812108224,1965039,0
1710812111974,1710812108264,1966197,0
1710812111974,1710812108304,1968029,0
1710812111974,1710812108344,1969902,0
1710812111974,1710812108385,1971795,0
1710812111974,1710812108425,1973944,0
1710812111974,1710812108465,1975931,0
1710812111974,1710812108505,1977844,0
1710812111974,1710812108545,1979973,0
1710812111974,1710812108586,1982156,0
1710812111974,1710812108625,1983691,0
1710812111974,1710812108665,1981503,0
1710812111974,1710812108706,1978233,0
1710812111974,1710812108746,1975797,0
1710812111974,1710812108787,1975261,0
1710812111974,1710812108826,1975651,0
1710812111974,1710812108866,1976812,0
1710812111974,1710812108906,1978195,0
1710812111974,1710812108946,1978648,0
1710812111974,1710812108987,1978880,0
1710812111974,1710812109027,1979082,0
1710812111974,1710812109067,1979795,0
1710812111974,1710812109107,1981035,0
1710812111974,1710812109147,1982643,0
1710812111974,1710812109188,1984369,0
1710812111974,1710812109227,1986380,0
1710812111974,1710812109267,1989956,0
1710812111974,1710812109307,1991882,0
1710812111974,1710812109347,1993844,0
1710812111974,1710812109388,1995668,0
1710812111974,1710812109428,1994616,0
1710812111974,1710812109468,1991704,0
1710812111974,1710812109508,1989226,0
1710812111974,1710812109548,1988394,0
1710812111974,1710812109589,1988662,0
1710812111974,1710812109628,1989801,0
1710812111974,1710812109668,1991410,0
1710812111974,1710812109708,1992290,0
1710812111974,1710812109748,1992686,0
1710812111974,1710812109789,1992871,0
1710812111974,1710812109829,1993459,0
1710812111974,1710812109869,1994538,0
1710812111974,1710812109909,1995901,0
1710812111974,1710812109949,1997689,0
1710812111974,1710812109990,1999490,0
1710812111974,1710812110029,2001359,0
1710812111974,1710812110069,2003252,0
1710812111974,1710812110109,2005065,0
1710812111974,1710812110150,2006870,0
1710812111974,1710812110190,2007480,0
1710812111974,1710812110230,2004460,0
1710812111974,1710812110273,2001458,0
1710812111974,1710812110310,1999570,0
1710812111974,1710812110350,1999200,0
1710812111974,1710812110391,1999880,0
1710812111974,1710812110430,2001298,0
1710812111974,1710812110470,2002416,0
1710812111974,1710812110510,2002915,0
1710812111974,1710812110550,2003004,0
1710812111974,1710812110591,2003332,0
1710812111974,1710812110631,2004125,0
1710812111974,1710812110671,2005354,0
1710812111974,1710812110711,2006859,0
1710812111974,1710812110751,2008609,0
1710812111974,1710812110792,2010352,0
1710812111974,1710812110831,2012134,0
1710812111974,1710812110871,2013797,0
1710812111974,1710812110911,2015533,0
1710812111974,1710812110951,2016830,0
1710812111974,1710812110992,2014656,0
1710812111974,1710812111032,2010530,0
1710812111974,1710812111072,2007297,0
1710812111974,1710812111112,2005555,0
1710812111974,1710812111152,2005154,0
1710812111974,1710812111193,2005522,0
1710812111974,1710812111232,2006111,0
1710812111974,1710812111272,2006327,0
1710812111974,1710812111312,2005827,0
1710812111974,1710812111353,2005505,0
1710812111974,1710812111393,2005590,0
1710812111974,1710812111433,2006248,0
1710812111974,1710812111473,2007399,0
1710812111974,1710812111513,2008595,0
1710812111974,1710812111553,2009922,0
1710812111974,1710812111594,2011317,0
1710812111974,1710812111633,2012779,0
1710812111974,1710812111673,2014149,0
1710812111974,1710812111714,2015784,0
1710812111974,1710812111754,2016189,0
1710812111974,1710812111794,2012722,0
1710812111974,1710812111834,2008290,0
1710812111974,1710812111874,2005234,0
1710812123998,1710812111914,2003628,0
1710812123998,1710812111954,2003172,0
1710812123998,1710812111995,2003468,0
1710812123998,1710812112034,2003781,0
1710812123998,1710812112074,2003590,0
1710812123998,1710812112114,2002838,0
1710812123998,1710812112155,2002687,0
1710812123998,1710812112196,2002822,0
1710812123998,1710812112235,2003270,0
1710812123998,1710812112275,2004494,0
1710812123998,1710812112315,2005582,0
1710812123998,1710812112355,2007051,0
1710812123998,1710812112396,2008407,0
1710812123998,1710812112436,2009848,0
1710812123998,1710812112476,2011313,0
1710812123998,1710812112516,2012768,0
1710812123998,1710812112556,2013207,0
1710812123998,1710812112597,2009725,0
1710812123998,1710812112636,2005362,0
1710812123998,1710812112676,2002344,0
1710812123998,1710812112716,2001031,0
1710812123998,1710812112756,2000715,0
1710812123998,1710812112797,2001115,0
1710812123998,1710812112837,2001401,0
1710812123998,1710812112877,2001211,0
1710812123998,1710812112917,2000646,0
1710812123998,1710812112957,2000183,0
1710812123998,1710812112998,2000323,0
1710812123998,1710812113037,2001016,0
1710812123998,1710812113077,2002058,0
1710812123998,1710812113117,2003263,0
1710812123998,1710812113157,2004626,0
1710812123998,1710812113198,2006076,0
1710812123998,1710812113237,2007384,0
1710812123998,1710812113278,2008909,0
1710812123998,1710812113318,2010410,0
1710812123998,1710812113358,2010891,0
1710812123998,1710812113399,2007933,0
1710812123998,1710812113438,2004126,0
1710812123998,1710812113478,2001476,0
1710812123998,1710812113518,2000367,0
1710812123998,1710812113558,2000342,0
1710812123998,1710812113599,2001090,0
1710812123998,1710812113639,2001818,0
1710812123998,1710812113679,2001673,0
1710812123998,1710812113719,2001026,0
1710812123998,1710812113759,2000969,0
1710812123998,1710812113800,2001031,0
1710812123998,1710812113839,2001756,0
1710812123998,1710812113879,2003024,0
1710812123998,1710812113919,2004321,0
1710812123998,1710812113960,2005526,0
1710812123998,1710812114001,2007093,0
1710812123998,1710812114040,2008553,0
1710812123998,1710812114080,2010124,0
1710812123998,1710812114120,2011182,0
1710812123998,1710812114160,2008941,0
1710812123998,1710812114201,2005421,0
1710812123998,1710812114241,2002767,0
1710812123998,1710812114281,2001911,0
1710812123998,1710812114321,2001973,0
1710812123998,1710812114361,2002925,0
1710812123998,1710812114402,2003943,0
1710812123998,1710812114441,2004468,0
1710812123998,1710812114481,2004578,0
1710812123998,1710812114521,2004644,0
1710812123998,1710812114562,2004809,0
1710812123998,1710812114603,2005777,0
1710812123998,1710812114642,2007414,0
1710812123998,1710812114682,2009173,0
1710812123998,1710812114722,2010890,0
1710812123998,1710812114762,2012395,0
1710812123998,1710812114803,2013830,0
1710812123998,1710812114843,2015287,0
1710812123998,1710812114883,2016754,0
1710812123998,1710812114923,2016102,0
1710812123998,1710812114963,2012945,0
1710812123998,1710812115004,2009915,0
1710812123998,1710812115043,2008502,0
1710812123998,1710812115083,2008412,0
1710812123998,1710812115123,2009041,0
1710812123998,1710812115164,2009937,0
1710812123998,1710812115205,2010556,0
1710812123998,1710812115244,2010438,0
1710812123998,1710812115284,2009871,0
1710812123998,1710812115324,2009790,0
1710812123998,1710812115364,2009980,0
1710812123998,1710812115405,2010874,0
1710812123998,1710812115445,2011907,0
1710812123998,1710812115485,2013310,0
1710812123998,1710812115525,2014646,0
1710812123998,1710812115565,2016185,0
1710812123998,1710812115606,2017535,0
1710812123998,1710812115645,2018915,0
1710812123998,1710812115685,2020327,0
1710812123998,1710812115725,2018579,0
1710812123998,1710812115766,2014533,0
1710812123998,1710812115807,2010785,0
1710812123998,1710812115846,2008733,0
1710812123998,1710812115886,2008102,0
1710812123998,1710812115926,2008044,0
1710812123998,1710812115966,2008460,0
1710812123998,1710812116007,2008716,0
1710812123998,1710812116047,2008401,0
1710812123998,1710812116087,2007769,0
1710812123998,1710812116127,2007791,0
1710812123998,1710812116167,2008485,0
1710812123998,1710812116208,2009520,0
1710812123998,1710812116247,2010625,0
1710812123998,1710812116287,2012166,0
1710812123998,1710812116327,2013540,0
1710812123998,1710812116367,2015041,0
1710812123998,1710812116408,2016565,0
1710812123998,1710812116448,2018066,0
1710812123998,1710812116488,2019603,0
1710812123998,1710812116528,2018677,0
1710812123998,1710812116568,2014817,0
1710812123998,1710812116609,2011203,0
1710812123998,1710812116648,2009136,0
1710812123998,1710812116688,2008565,0
1710812123998,1710812116728,2008568,0
1710812123998,1710812116768,2009187,0
1710812123998,1710812116809,2009594,0
1710812123998,1710812116849,2009589,0
1710812123998,1710812116889,2009097,0
1710812123998,1710812116929,2009129,0
1710812123998,1710812116969,2009592,0
1710812123998,1710812117010,2010673,0
1710812123998,1710812117049,2011804,0
1710812123998,1710812117089,2013406,0
1710812123998,1710812117129,2014877,0
1710812123998,1710812117169,2016497,0
1710812123998,1710812117210,2018107,0
1710812123998,1710812117250,2019571,0
1710812123998,1710812117290,2021136,0
1710812123998,1710812117330,2021724,0
1710812123998,1710812117370,2018693,0
1710812123998,1710812117411,2015067,0
1710812123998,1710812117450,2012601,0
1710812123998,1710812117490,2011717,0
1710812123998,1710812117530,2011774,0
1710812123998,1710812117570,2012541,0
1710812123998,1710812117611,2013445,0
1710812123998,1710812117651,2013529,0
1710812123998,1710812117691,2013368,0
1710812123998,1710812117731,2013224,0
1710812123998,1710812117771,2013691,0
1710812123998,1710812117812,2014522,0
1710812123998,1710812117851,2015899,0
1710812123998,1710812117891,2017332,0
1710812123998,1710812117931,2018921,0
1710812123998,1710812117972,2020478,0
1710812123998,1710812118012,2022084,0
1710812123998,1710812118052,2023681,0
1710812123998,1710812118092,2025415,0
1710812123998,1710812118132,2026405,0
1710812123998,1710812118172,2023942,0
